0.000000 0.000000
0.004000 0.000000
0.008000 0.000000
0.012000 0.000000
0.016000 0.000001
0.020000 0.000001
0.024000 0.000001
0.028000 0.000002
0.032000 0.000004
0.036000 0.000006
0.040001 0.000009
0.044001 0.000012
0.048001 0.000018
0.052001 0.000024
0.056001 0.000032
0.060001 0.000042
0.064001 0.000054
0.068001 0.000067
0.072001 0.000081
0.076001 0.000096
0.080001 0.000111
0.084001 0.000124
0.088001 0.000136
0.092001 0.000145
0.096001 0.000150
0.100001 0.000152
0.104001 0.000150
0.108001 0.000145
0.112001 0.000136
0.116002 0.000124
0.120002 0.000111
0.124002 0.000096
0.128002 0.000081
0.132002 0.000067
0.136002 0.000054
0.140002 0.000042
0.144002 0.000032
0.148002 0.000024
0.152002 0.000017
0.156002 0.000012
0.160002 0.000009
0.164002 0.000006
0.168002 0.000003
0.172002 0.000000
0.176002 -0.000004
0.180002 -0.000013
0.184002 -0.000028
0.188003 -0.000049
0.192003 -0.000071
0.196003 -0.000082
0.200003 -0.000057
0.204003 0.000044
0.208003 0.000257
0.212003 0.000567
0.216003 0.000868
0.220003 0.001000
0.224003 0.000883
0.228003 0.000594
0.232003 0.000282
0.236003 0.000047
0.240003 -0.000102
0.244003 -0.000192
0.248003 -0.000235
0.252003 -0.000233
0.256003 -0.000193
0.260003 -0.000130
0.264004 -0.000065
0.268004 -0.000013
0.272004 0.000023
0.276004 0.000046
0.280004 0.000063
0.284004 0.000077
0.288004 0.000091
0.292004 0.000106
0.296004 0.000122
0.300004 0.000139
0.304004 0.000157
0.308004 0.000175
0.312004 0.000194
0.316004 0.000212
0.320004 0.000230
0.324004 0.000247
0.328004 0.000262
0.332004 0.000275
0.336004 0.000286
0.340005 0.000295
0.344005 0.000301
0.348005 0.000304
0.352005 0.000304
0.356005 0.000301
0.360005 0.000295
0.364005 0.000286
0.368005 0.000275
0.372005 0.000262
0.376005 0.000246
0.380005 0.000230
0.384005 0.000212
0.388005 0.000194
0.392005 0.000175
0.396005 0.000157
0.400005 0.000139
0.404005 0.000122
0.408005 0.000106
0.412005 0.000092
0.416006 0.000078
0.420006 0.000066
0.424006 0.000055
0.428006 0.000045
0.432006 0.000037
0.436006 0.000030
0.440006 0.000024
0.444006 0.000019
0.448006 0.000015
0.452006 0.000012
0.456006 0.000009
0.460006 0.000007
0.464006 0.000005
0.468006 0.000004
0.472006 0.000003
0.476006 0.000002
0.480006 0.000002
0.484006 0.000001
0.488007 0.000001
0.492007 0.000001
0.496007 0.000000
0.500007 0.000000
0.504007 0.000000
0.508007 0.000000
0.512007 0.000000
0.516007 0.000000
0.520007 0.000000
0.524007 0.000000
0.528007 0.000000
0.532007 0.000000
0.536007 0.000000
0.540007 0.000000
0.544007 0.000000
0.548007 0.000000
0.552007 0.000000
0.556007 0.000000
0.560007 0.000000
0.564008 0.000000
0.568008 0.000000
0.572008 0.000000
0.576008 0.000000
0.580008 0.000000
0.584008 0.000000
0.588008 0.000000
0.592008 0.000000
0.596008 0.000000
0.600008 0.000000
0.604008 0.000000
0.608008 0.000000
0.612008 0.000000
0.616008 0.000000
0.620008 0.000000
0.624008 0.000000
0.628008 0.000000
0.632008 0.000000
0.636008 0.000000
0.640009 0.000000
0.644009 0.000000
0.648009 0.000000
0.652009 0.000000
0.656009 0.000000
0.660009 0.000000
0.664009 0.000000
0.668009 0.000000
0.672009 0.000000
0.676009 0.000000
0.680009 0.000000
0.684009 0.000000
0.688009 0.000000
0.692009 0.000000
0.696009 0.000000
0.700009 0.000000
0.704009 0.000000
0.708009 0.000000
0.712009 0.000000
0.716010 0.000000
0.720010 0.000000
0.724010 0.000000
0.728010 0.000000
0.732010 0.000000
0.736010 0.000000
0.740010 0.000000
0.744010 0.000000
0.748010 0.000000
0.752010 0.000000
0.756010 0.000000
0.760010 0.000000
0.764010 0.000000
0.768010 0.000000
0.772010 0.000000
0.776010 0.000000
0.780010 0.000000
0.784010 0.000000
0.788011 0.000000
0.792011 0.000000
0.796011 0.000000
0.800011 0.000000
0.804011 0.000000
0.808011 0.000000
0.812011 0.000000
0.816011 0.000000
0.820011 0.000000
0.824011 0.000000
0.828011 0.000000
0.832011 0.000000
0.836011 0.000000
0.840011 0.000000
0.844011 0.000000
0.848011 0.000000
0.852011 0.000000
0.856011 0.000000
0.860011 0.000000
0.864012 0.000000
0.868012 0.000000
0.872012 0.000000
0.876012 0.000000
0.880012 0.000000
0.884012 0.000000
0.888012 0.000000
0.892012 0.000000
0.896012 0.000000
0.900012 0.000000
0.904012 0.000000
0.908012 0.000000
0.912012 0.000000
0.916012 0.000000
0.920012 0.000000
0.924012 0.000000
0.928012 0.000000
0.932012 0.000000
0.936012 0.000000
0.940013 0.000000
0.944013 0.000000
0.948013 0.000000
0.952013 0.000000
0.956013 0.000000
0.960013 0.000000
0.964013 0.000000
0.968013 0.000000
0.972013 0.000000
0.976013 0.000000
0.980013 0.000000
0.984013 0.000000
0.988013 0.000000
0.992013 0.000000
0.996013 0.000000
1.000013 0.000000
1.004013 0.000000
1.008013 0.000000
1.012013 0.000000
1.016014 0.000001
1.020014 0.000001
1.024014 0.000002
1.028014 0.000002
1.032014 0.000004
1.036014 0.000006
1.040014 0.000009
1.044014 0.000012
1.048014 0.000018
1.052014 0.000024
1.056014 0.000032
1.060014 0.000042
1.064014 0.000054
1.068014 0.000067
1.072014 0.000081
1.076014 0.000096
1.080014 0.000111
1.084014 0.000124
1.088015 0.000136
1.092015 0.000145
1.096015 0.000150
1.100015 0.000152
1.104015 0.000150
1.108015 0.000145
1.112015 0.000136
1.116015 0.000124
1.120015 0.000110
1.124015 0.000096
1.128015 0.000081
1.132015 0.000067
1.136015 0.000054
1.140015 0.000042
1.144015 0.000032
1.148015 0.000024
1.152015 0.000017
1.156015 0.000012
1.160015 0.000009
1.164016 0.000006
1.168016 0.000003
1.172016 0.000000
1.176016 -0.000004
1.180016 -0.000013
1.184016 -0.000028
1.188016 -0.000049
1.192016 -0.000071
1.196016 -0.000082
1.200016 -0.000056
1.204016 0.000045
1.208016 0.000257
1.212016 0.000568
1.216016 0.000869
1.220016 0.001000
1.224016 0.000882
1.228016 0.000593
1.232016 0.000281
1.236016 0.000046
1.240017 -0.000103
1.244017 -0.000192
1.248017 -0.000235
1.252017 -0.000233
1.256017 -0.000192
1.260017 -0.000129
1.264017 -0.000065
1.268017 -0.000013
1.272017 0.000023
1.276017 0.000046
1.280017 0.000063
1.284017 0.000077
1.288017 0.000091
1.292017 0.000106
1.296017 0.000122
1.300017 0.000139
1.304017 0.000157
1.308017 0.000176
1.312017 0.000194
1.316018 0.000212
1.320018 0.000230
1.324018 0.000247
1.328018 0.000262
1.332018 0.000275
1.336018 0.000286
1.340018 0.000295
1.344018 0.000301
1.348018 0.000304
1.352018 0.000304
1.356018 0.000301
1.360018 0.000295
1.364018 0.000286
1.368018 0.000275
1.372018 0.000262
1.376018 0.000246
1.380018 0.000230
1.384018 0.000212
1.388019 0.000194
1.392019 0.000175
1.396019 0.000157
1.400019 0.000139
1.404019 0.000122
1.408019 0.000106
1.412019 0.000092
1.416019 0.000078
1.420019 0.000066
1.424019 0.000055
1.428019 0.000045
1.432019 0.000037
1.436019 0.000030
1.440019 0.000024
1.444019 0.000019
1.448019 0.000015
1.452019 0.000012
1.456019 0.000009
1.460019 0.000007
1.464020 0.000005
1.468020 0.000004
1.472020 0.000003
1.476020 0.000002
1.480020 0.000002
1.484020 0.000001
1.488020 0.000001
1.492020 0.000001
1.496020 0.000000
1.500020 0.000000
1.504020 0.000000
1.508020 0.000000
1.512020 0.000000
1.516020 0.000000
1.520020 0.000000
1.524020 0.000000
1.528020 0.000000
1.532020 0.000000
1.536020 0.000000
1.540021 0.000000
1.544021 0.000000
1.548021 0.000000
1.552021 0.000000
1.556021 0.000000
1.560021 0.000000
1.564021 0.000000
1.568021 0.000000
1.572021 0.000000
1.576021 0.000000
1.580021 0.000000
1.584021 0.000000
1.588021 0.000000
1.592021 0.000000
1.596021 0.000000
1.600021 0.000000
1.604021 0.000000
1.608021 0.000000
1.612021 0.000000
1.616022 0.000000
1.620022 0.000000
1.624022 0.000000
1.628022 0.000000
1.632022 0.000000
1.636022 0.000000
1.640022 0.000000
1.644022 0.000000
1.648022 0.000000
1.652022 0.000000
1.656022 0.000000
1.660022 0.000000
1.664022 0.000000
1.668022 0.000000
1.672022 0.000000
1.676022 0.000000
1.680022 0.000000
1.684022 0.000000
1.688023 0.000000
1.692023 0.000000
1.696023 0.000000
1.700023 0.000000
1.704023 0.000000
1.708023 0.000000
1.712023 0.000000
1.716023 0.000000
1.720023 0.000000
1.724023 0.000000
1.728023 0.000000
1.732023 0.000000
1.736023 0.000000
1.740023 0.000000
1.744023 0.000000
1.748023 0.000000
1.752023 0.000000
1.756023 0.000000
1.760023 0.000000
1.764024 0.000000
1.768024 0.000000
1.772024 0.000000
1.776024 0.000000
1.780024 0.000000
1.784024 0.000000
1.788024 0.000000
1.792024 0.000000
1.796024 0.000000
1.800024 0.000000
1.804024 0.000000
1.808024 0.000000
1.812024 0.000000
1.816024 0.000000
1.820024 0.000000
1.824024 0.000000
1.828024 0.000000
1.832024 0.000000
1.836024 0.000000
1.840025 0.000000
1.844025 0.000000
1.848025 0.000000
1.852025 0.000000
1.856025 0.000000
1.860025 0.000000
1.864025 0.000000
1.868025 0.000000
1.872025 0.000000
1.876025 0.000000
1.880025 0.000000
1.884025 0.000000
1.888025 0.000000
1.892025 0.000000
1.896025 0.000000
1.900025 0.000000
1.904025 0.000000
1.908025 0.000000
1.912025 0.000000
1.916026 0.000000
1.920026 0.000000
1.924026 0.000000
1.928026 0.000000
1.932026 0.000000
1.936026 0.000000
1.940026 0.000000
1.944026 0.000000
1.948026 0.000000
1.952026 0.000000
1.956026 0.000000
1.960026 0.000000
1.964026 0.000000
1.968026 0.000000
1.972026 0.000000
1.976026 0.000000
1.980026 0.000000
1.984026 0.000000
1.988027 0.000000
1.992027 0.000000
1.996027 0.000000
2.000027 0.000000
2.004027 0.000000
2.008027 0.000000
2.012027 0.000000
2.016027 0.000001
2.020027 0.000001
2.024027 0.000002
2.028027 0.000002
2.032027 0.000004
2.036027 0.000006
2.040027 0.000009
2.044027 0.000012
2.048027 0.000018
2.052027 0.000024
2.056027 0.000032
2.060027 0.000042
2.064028 0.000054
2.068028 0.000067
2.072028 0.000081
2.076028 0.000096
2.080028 0.000111
2.084028 0.000124
2.088028 0.000136
2.092028 0.000145
2.096028 0.000150
2.100028 0.000152
2.104028 0.000150
2.108028 0.000145
2.112028 0.000136
2.116028 0.000124
2.120028 0.000110
2.124028 0.000096
2.128028 0.000081
2.132028 0.000067
2.136028 0.000054
2.140029 0.000042
2.144029 0.000032
2.148029 0.000024
2.152029 0.000017
2.156029 0.000012
2.160029 0.000008
2.164029 0.000006
2.168029 0.000003
2.172029 0.000000
2.176029 -0.000004
2.180029 -0.000013
2.184029 -0.000028
2.188029 -0.000049
2.192029 -0.000071
2.196029 -0.000082
2.200029 -0.000056
2.204029 0.000045
2.208029 0.000258
2.212029 0.000569
2.216030 0.000870
2.220030 0.001000
2.224030 0.000882
2.228030 0.000591
2.232030 0.000280
2.236030 0.000046
2.240030 -0.000103
2.244030 -0.000192
2.248030 -0.000235
2.252030 -0.000233
2.256030 -0.000192
2.260030 -0.000129
2.264030 -0.000065
2.268030 -0.000013
2.272030 0.000023
2.276030 0.000047
2.280030 0.000063
2.284030 0.000077
2.288031 0.000092
2.292031 0.000106
2.296031 0.000123
2.300031 0.000140
2.304031 0.000157
2.308031 0.000176
2.312031 0.000194
2.316031 0.000212
2.320031 0.000230
2.324031 0.000247
2.328031 0.000262
2.332031 0.000275
2.336031 0.000286
2.340031 0.000295
2.344031 0.000301
2.348031 0.000304
2.352031 0.000304
2.356031 0.000301
2.360031 0.000295
2.364032 0.000286
2.368032 0.000275
2.372032 0.000262
2.376032 0.000246
2.380032 0.000230
2.384032 0.000212
2.388032 0.000194
2.392032 0.000175
2.396032 0.000157
2.400032 0.000139
2.404032 0.000122
2.408032 0.000106
2.412032 0.000091
2.416032 0.000078
2.420032 0.000066
2.424032 0.000055
2.428032 0.000045
2.432032 0.000037
2.436032 0.000030
2.440033 0.000024
2.444033 0.000019
2.448033 0.000015
2.452033 0.000012
2.456033 0.000009
2.460033 0.000007
2.464033 0.000005
2.468033 0.000004
2.472033 0.000003
2.476033 0.000002
2.480033 0.000002
2.484033 0.000001
2.488033 0.000001
2.492033 0.000001
2.496033 0.000000
2.500033 0.000000
2.504033 0.000000
2.508033 0.000000
2.512033 0.000000
2.516034 0.000000
2.520034 0.000000
2.524034 0.000000
2.528034 0.000000
2.532034 0.000000
2.536034 0.000000
2.540034 0.000000
2.544034 0.000000
2.548034 0.000000
2.552034 0.000000
2.556034 0.000000
2.560034 0.000000
2.564034 0.000000
2.568034 0.000000
2.572034 0.000000
2.576034 0.000000
2.580034 0.000000
2.584034 0.000000
2.588035 0.000000
2.592035 0.000000
2.596035 0.000000
2.600035 0.000000
2.604035 0.000000
2.608035 0.000000
2.612035 0.000000
2.616035 0.000000
2.620035 0.000000
2.624035 0.000000
2.628035 0.000000
2.632035 0.000000
2.636035 0.000000
2.640035 0.000000
2.644035 0.000000
2.648035 0.000000
2.652035 0.000000
2.656035 0.000000
2.660035 0.000000
2.664036 0.000000
2.668036 0.000000
2.672036 0.000000
2.676036 0.000000
2.680036 0.000000
2.684036 0.000000
2.688036 0.000000
2.692036 0.000000
2.696036 0.000000
2.700036 0.000000
2.704036 0.000000
2.708036 0.000000
2.712036 0.000000
2.716036 0.000000
2.720036 0.000000
2.724036 0.000000
2.728036 0.000000
2.732036 0.000000
2.736036 0.000000
2.740037 0.000000
2.744037 0.000000
2.748037 0.000000
2.752037 0.000000
2.756037 0.000000
2.760037 0.000000
2.764037 0.000000
2.768037 0.000000
2.772037 0.000000
2.776037 0.000000
2.780037 0.000000
2.784037 0.000000
2.788037 0.000000
2.792037 0.000000
2.796037 0.000000
2.800037 0.000000
2.804037 0.000000
2.808037 0.000000
2.812037 0.000000
2.816038 0.000000
2.820038 0.000000
2.824038 0.000000
2.828038 0.000000
2.832038 0.000000
2.836038 0.000000
2.840038 0.000000
2.844038 0.000000
2.848038 0.000000
2.852038 0.000000
2.856038 0.000000
2.860038 0.000000
2.864038 0.000000
2.868038 0.000000
2.872038 0.000000
2.876038 0.000000
2.880038 0.000000
2.884038 0.000000
2.888039 0.000000
2.892039 0.000000
2.896039 0.000000
2.900039 0.000000
2.904039 0.000000
2.908039 0.000000
2.912039 0.000000
2.916039 0.000000
2.920039 0.000000
2.924039 0.000000
2.928039 0.000000
2.932039 0.000000
2.936039 0.000000
2.940039 0.000000
2.944039 0.000000
2.948039 0.000000
2.952039 0.000000
2.956039 0.000000
2.960039 0.000000
2.964040 0.000000
2.968040 0.000000
2.972040 0.000000
2.976040 0.000000
2.980040 0.000000
2.984040 0.000000
2.988040 0.000000
2.992040 0.000000
2.996040 0.000000
3.000040 0.000000
3.004040 0.000000
3.008040 0.000000
3.012040 0.000000
3.016040 0.000001
3.020040 0.000001
3.024040 0.000002
3.028040 0.000002
3.032040 0.000004
3.036040 0.000006
3.040041 0.000009
3.044041 0.000012
3.048041 0.000018
3.052041 0.000024
3.056041 0.000032
3.060041 0.000042
3.064041 0.000054
3.068041 0.000067
3.072041 0.000081
3.076041 0.000096
3.080041 0.000111
3.084041 0.000124
3.088041 0.000136
3.092041 0.000145
3.096041 0.000150
3.100041 0.000152
3.104041 0.000150
3.108041 0.000145
3.112041 0.000136
3.116042 0.000124
3.120042 0.000110
3.124042 0.000096
3.128042 0.000081
3.132042 0.000067
3.136042 0.000054
3.140042 0.000042
3.144042 0.000032
3.148042 0.000024
3.152042 0.000017
3.156042 0.000012
3.160042 0.000008
3.164042 0.000006
3.168042 0.000003
3.172042 0.000000
3.176042 -0.000004
3.180042 -0.000013
3.184042 -0.000028
3.188043 -0.000049
3.192043 -0.000071
3.196043 -0.000082
3.200043 -0.000056
3.204043 0.000046
3.208043 0.000259
3.212043 0.000570
3.216043 0.000870
3.220043 0.001000
3.224043 0.000881
3.228043 0.000590
3.232043 0.000280
3.236043 0.000045
3.240043 -0.000104
3.244043 -0.000192
3.248043 -0.000235
3.252043 -0.000233
3.256043 -0.000192
3.260043 -0.000129
3.264044 -0.000064
3.268044 -0.000012
3.272044 0.000023
3.276044 0.000047
3.280044 0.000063
3.284044 0.000077
3.288044 0.000092
3.292044 0.000107
3.296044 0.000123
3.300044 0.000140
3.304044 0.000157
3.308044 0.000176
3.312044 0.000194
3.316044 0.000212
3.320044 0.000230
3.324044 0.000247
3.328044 0.000262
3.332044 0.000275
3.336044 0.000286
3.340045 0.000295
3.344045 0.000301
3.348045 0.000304
3.352045 0.000304
3.356045 0.000301
3.360045 0.000295
3.364045 0.000286
3.368045 0.000275
3.372045 0.000262
3.376045 0.000246
3.380045 0.000230
3.384045 0.000212
3.388045 0.000194
3.392045 0.000175
3.396045 0.000157
3.400045 0.000139
3.404045 0.000122
3.408045 0.000106
3.412045 0.000091
3.416046 0.000078
3.420046 0.000066
3.424046 0.000055
3.428046 0.000045
3.432046 0.000037
3.436046 0.000030
3.440046 0.000024
3.444046 0.000019
3.448046 0.000015
3.452046 0.000012
3.456046 0.000009
3.460046 0.000007
3.464046 0.000005
3.468046 0.000004
3.472046 0.000003
3.476046 0.000002
3.480046 0.000002
3.484046 0.000001
3.488047 0.000001
3.492047 0.000001
3.496047 0.000000
3.500047 0.000000
3.504047 0.000000
3.508047 0.000000
3.512047 0.000000
3.516047 0.000000
3.520047 0.000000
3.524047 0.000000
3.528047 0.000000
3.532047 0.000000
3.536047 0.000000
3.540047 0.000000
3.544047 0.000000
3.548047 0.000000
3.552047 0.000000
3.556047 0.000000
3.560047 0.000000
3.564048 0.000000
3.568048 0.000000
3.572048 0.000000
3.576048 0.000000
3.580048 0.000000
3.584048 0.000000
3.588048 0.000000
3.592048 0.000000
3.596048 0.000000
3.600048 0.000000
3.604048 0.000000
3.608048 0.000000
3.612048 0.000000
3.616048 0.000000
3.620048 0.000000
3.624048 0.000000
3.628048 0.000000
3.632048 0.000000
3.636048 0.000000
3.640049 0.000000
3.644049 0.000000
3.648049 0.000000
3.652049 0.000000
3.656049 0.000000
3.660049 0.000000
3.664049 0.000000
3.668049 0.000000
3.672049 0.000000
3.676049 0.000000
3.680049 0.000000
3.684049 0.000000
3.688049 0.000000
3.692049 0.000000
3.696049 0.000000
3.700049 0.000000
3.704049 0.000000
3.708049 0.000000
3.712049 0.000000
3.716050 0.000000
3.720050 0.000000
3.724050 0.000000
3.728050 0.000000
3.732050 0.000000
3.736050 0.000000
3.740050 0.000000
3.744050 0.000000
3.748050 0.000000
3.752050 0.000000
3.756050 0.000000
3.760050 0.000000
3.764050 0.000000
3.768050 0.000000
3.772050 0.000000
3.776050 0.000000
3.780050 0.000000
3.784050 0.000000
3.788051 0.000000
3.792051 0.000000
3.796051 0.000000
3.800051 0.000000
3.804051 0.000000
3.808051 0.000000
3.812051 0.000000
3.816051 0.000000
3.820051 0.000000
3.824051 0.000000
3.828051 0.000000
3.832051 0.000000
3.836051 0.000000
3.840051 0.000000
3.844051 0.000000
3.848051 0.000000
3.852051 0.000000
3.856051 0.000000
3.860051 0.000000
3.864052 0.000000
3.868052 0.000000
3.872052 0.000000
3.876052 0.000000
3.880052 0.000000
3.884052 0.000000
3.888052 0.000000
3.892052 0.000000
3.896052 0.000000
3.900052 0.000000
3.904052 0.000000
3.908052 0.000000
3.912052 0.000000
3.916052 0.000000
3.920052 0.000000
3.924052 0.000000
3.928052 0.000000
3.932052 0.000000
3.936052 0.000000
3.940053 0.000000
3.944053 0.000000
3.948053 0.000000
3.952053 0.000000
3.956053 0.000000
3.960053 0.000000
3.964053 0.000000
3.968053 0.000000
3.972053 0.000000
3.976053 0.000000
3.980053 0.000000
3.984053 0.000000
3.988053 0.000000
3.992053 0.000000
3.996053 0.000000
4.000053 0.000000
4.004053 0.000000
4.008053 0.000000
4.012053 0.000000
4.016054 0.000001
4.020054 0.000001
4.024054 0.000002
4.028054 0.000002
4.032054 0.000004
4.036054 0.000006
4.040054 0.000009
4.044054 0.000012
4.048054 0.000018
4.052054 0.000024
4.056054 0.000032
4.060054 0.000042
4.064054 0.000054
4.068054 0.000067
4.072054 0.000082
4.076054 0.000096
4.080054 0.000111
4.084054 0.000124
4.088055 0.000136
4.092055 0.000145
4.096055 0.000150
4.100055 0.000152
4.104055 0.000150
4.108055 0.000145
4.112055 0.000136
4.116055 0.000124
4.120055 0.000110
4.124055 0.000096
4.128055 0.000081
4.132055 0.000067
4.136055 0.000054
4.140055 0.000042
4.144055 0.000032
4.148055 0.000024
4.152055 0.000017
4.156055 0.000012
4.160055 0.000008
4.164056 0.000006
4.168056 0.000003
4.172056 0.000000
4.176056 -0.000004
4.180056 -0.000013
4.184056 -0.000028
4.188056 -0.000049
4.192056 -0.000071
4.196056 -0.000082
4.200056 -0.000056
4.204056 0.000046
4.208056 0.000260
4.212056 0.000571
4.216056 0.000871
4.220056 0.001000
4.224056 0.000880
4.228056 0.000589
4.232056 0.000279
4.236056 0.000045
4.240057 -0.000104
4.244057 -0.000192
4.248057 -0.000235
4.252057 -0.000233
4.256057 -0.000192
4.260057 -0.000129
4.264057 -0.000064
4.268057 -0.000012
4.272057 0.000023
4.276057 0.000047
4.280057 0.000063
4.284057 0.000077
4.288057 0.000092
4.292057 0.000107
4.296057 0.000123
4.300057 0.000140
4.304057 0.000157
4.308057 0.000176
4.312057 0.000194
4.316058 0.000212
4.320058 0.000230
4.324058 0.000247
4.328058 0.000262
4.332058 0.000275
4.336058 0.000287
4.340058 0.000295
4.344058 0.000301
4.348058 0.000304
4.352058 0.000304
4.356058 0.000301
4.360058 0.000295
4.364058 0.000286
4.368058 0.000275
4.372058 0.000262
4.376058 0.000246
4.380058 0.000230
4.384058 0.000212
4.388059 0.000194
4.392059 0.000175
4.396059 0.000157
4.400059 0.000139
4.404059 0.000122
4.408059 0.000106
4.412059 0.000091
4.416059 0.000078
4.420059 0.000066
4.424059 0.000055
4.428059 0.000045
4.432059 0.000037
4.436059 0.000030
4.440059 0.000024
4.444059 0.000019
4.448059 0.000015
4.452059 0.000012
4.456059 0.000009
4.460059 0.000007
4.464060 0.000005
4.468060 0.000004
4.472060 0.000003
4.476060 0.000002
4.480060 0.000002
4.484060 0.000001
4.488060 0.000001
4.492060 0.000001
4.496060 0.000000
4.500060 0.000000
4.504060 0.000000
4.508060 0.000000
4.512060 0.000000
4.516060 0.000000
4.520060 0.000000
4.524060 0.000000
4.528060 0.000000
4.532060 0.000000
4.536060 0.000000
4.540061 0.000000
4.544061 0.000000
4.548061 0.000000
4.552061 0.000000
4.556061 0.000000
4.560061 0.000000
4.564061 0.000000
4.568061 0.000000
4.572061 0.000000
4.576061 0.000000
4.580061 0.000000
4.584061 0.000000
4.588061 0.000000
4.592061 0.000000
4.596061 0.000000
4.600061 0.000000
4.604061 0.000000
4.608061 0.000000
4.612061 0.000000
4.616062 0.000000
4.620062 0.000000
4.624062 0.000000
4.628062 0.000000
4.632062 0.000000
4.636062 0.000000
4.640062 0.000000
4.644062 0.000000
4.648062 0.000000
4.652062 0.000000
4.656062 0.000000
4.660062 0.000000
4.664062 0.000000
4.668062 0.000000
4.672062 0.000000
4.676062 0.000000
4.680062 0.000000
4.684062 0.000000
4.688063 0.000000
4.692063 0.000000
4.696063 0.000000
4.700063 0.000000
4.704063 0.000000
4.708063 0.000000
4.712063 0.000000
4.716063 0.000000
4.720063 0.000000
4.724063 0.000000
4.728063 0.000000
4.732063 0.000000
4.736063 0.000000
4.740063 0.000000
4.744063 0.000000
4.748063 0.000000
4.752063 0.000000
4.756063 0.000000
4.760063 0.000000
4.764064 0.000000
4.768064 0.000000
4.772064 0.000000
4.776064 0.000000
4.780064 0.000000
4.784064 0.000000
4.788064 0.000000
4.792064 0.000000
4.796064 0.000000
4.800064 0.000000
4.804064 0.000000
4.808064 0.000000
4.812064 0.000000
4.816064 0.000000
4.820064 0.000000
4.824064 0.000000
4.828064 0.000000
4.832064 0.000000
4.836064 0.000000
4.840065 0.000000
4.844065 0.000000
4.848065 0.000000
4.852065 0.000000
4.856065 0.000000
4.860065 0.000000
4.864065 0.000000
4.868065 0.000000
4.872065 0.000000
4.876065 0.000000
4.880065 0.000000
4.884065 0.000000
4.888065 0.000000
4.892065 0.000000
4.896065 0.000000
4.900065 0.000000
4.904065 0.000000
4.908065 0.000000
4.912065 0.000000
4.916066 0.000000
4.920066 0.000000
4.924066 0.000000
4.928066 0.000000
4.932066 0.000000
4.936066 0.000000
4.940066 0.000000
4.944066 0.000000
4.948066 0.000000
4.952066 0.000000
4.956066 0.000000
4.960066 0.000000
4.964066 0.000000
4.968066 0.000000
4.972066 0.000000
4.976066 0.000000
4.980066 0.000000
4.984066 0.000000
4.988067 0.000000
4.992067 0.000000
4.996067 0.000000
5.000067 0.000000
5.004067 0.000000
5.008067 0.000000
5.012067 0.000000
5.016067 0.000001
5.020067 0.000001
5.024067 0.000002
5.028067 0.000002
5.032067 0.000004
5.036067 0.000006
5.040067 0.000009
5.044067 0.000012
5.048067 0.000018
5.052067 0.000024
5.056067 0.000033
5.060067 0.000043
5.064068 0.000054
5.068068 0.000067
5.072068 0.000082
5.076068 0.000096
5.080068 0.000111
5.084068 0.000124
5.088068 0.000136
5.092068 0.000145
5.096068 0.000150
5.100068 0.000152
5.104068 0.000150
5.108068 0.000145
5.112068 0.000135
5.116068 0.000124
5.120068 0.000110
5.124068 0.000096
5.128068 0.000081
5.132068 0.000067
5.136068 0.000054
5.140069 0.000042
5.144069 0.000032
5.148069 0.000024
5.152069 0.000017
5.156069 0.000012
5.160069 0.000008
5.164069 0.000006
5.168069 0.000003
5.172069 0.000000
5.176069 -0.000004
5.180069 -0.000013
5.184069 -0.000028
5.188069 -0.000049
5.192069 -0.000072
5.196069 -0.000082
5.200069 -0.000056
5.204069 0.000047
5.208069 0.000261
5.212069 0.000573
5.216070 0.000872
5.220070 0.001000
5.224070 0.000879
5.228070 0.000588
5.232070 0.000278
5.236070 0.000044
5.240070 -0.000104
5.244070 -0.000193
5.248070 -0.000235
5.252070 -0.000233
5.256070 -0.000192
5.260070 -0.000128
5.264070 -0.000064
5.268070 -0.000012
5.272070 0.000023
5.276070 0.000047
5.280070 0.000063
5.284070 0.000078
5.288071 0.000092
5.292071 0.000107
5.296071 0.000123
5.300071 0.000140
5.304071 0.000157
5.308071 0.000176
5.312071 0.000194
5.316071 0.000212
5.320071 0.000230
5.324071 0.000247
5.328071 0.000262
5.332071 0.000275
5.336071 0.000287
5.340071 0.000295
5.344071 0.000301
5.348071 0.000304
5.352071 0.000304
5.356071 0.000301
5.360071 0.000295
5.364072 0.000286
5.368072 0.000275
5.372072 0.000261
5.376072 0.000246
5.380072 0.000230
5.384072 0.000212
5.388072 0.000194
5.392072 0.000175
5.396072 0.000157
5.400072 0.000139
5.404072 0.000122
5.408072 0.000106
5.412072 0.000091
5.416072 0.000078
5.420072 0.000066
5.424072 0.000055
5.428072 0.000045
5.432072 0.000037
5.436072 0.000030
5.440073 0.000024
5.444073 0.000019
5.448073 0.000015
5.452073 0.000012
5.456073 0.000009
5.460073 0.000007
5.464073 0.000005
5.468073 0.000004
5.472073 0.000003
5.476073 0.000002
5.480073 0.000002
5.484073 0.000001
5.488073 0.000001
5.492073 0.000001
5.496073 0.000000
5.500073 0.000000
5.504073 0.000000
5.508073 0.000000
5.512073 0.000000
5.516074 0.000000
5.520074 0.000000
5.524074 0.000000
5.528074 0.000000
5.532074 0.000000
5.536074 0.000000
5.540074 0.000000
5.544074 0.000000
5.548074 0.000000
5.552074 0.000000
5.556074 0.000000
5.560074 0.000000
5.564074 0.000000
5.568074 0.000000
5.572074 0.000000
5.576074 0.000000
5.580074 0.000000
5.584074 0.000000
5.588075 0.000000
5.592075 0.000000
5.596075 0.000000
5.600075 0.000000
5.604075 0.000000
5.608075 0.000000
5.612075 0.000000
5.616075 0.000000
5.620075 0.000000
5.624075 0.000000
5.628075 0.000000
5.632075 0.000000
5.636075 0.000000
5.640075 0.000000
5.644075 0.000000
5.648075 0.000000
5.652075 0.000000
5.656075 0.000000
5.660075 0.000000
5.664076 0.000000
5.668076 0.000000
5.672076 0.000000
5.676076 0.000000
5.680076 0.000000
5.684076 0.000000
5.688076 0.000000
5.692076 0.000000
5.696076 0.000000
5.700076 0.000000
5.704076 0.000000
5.708076 0.000000
5.712076 0.000000
5.716076 0.000000
5.720076 0.000000
5.724076 0.000000
5.728076 0.000000
5.732076 0.000000
5.736076 0.000000
5.740077 0.000000
5.744077 0.000000
5.748077 0.000000
5.752077 0.000000
5.756077 0.000000
5.760077 0.000000
5.764077 0.000000
5.768077 0.000000
5.772077 0.000000
5.776077 0.000000
5.780077 0.000000
5.784077 0.000000
5.788077 0.000000
5.792077 0.000000
5.796077 0.000000
5.800077 0.000000
5.804077 0.000000
5.808077 0.000000
5.812077 0.000000
5.816078 0.000000
5.820078 0.000000
5.824078 0.000000
5.828078 0.000000
5.832078 0.000000
5.836078 0.000000
5.840078 0.000000
5.844078 0.000000
5.848078 0.000000
5.852078 0.000000
5.856078 0.000000
5.860078 0.000000
5.864078 0.000000
5.868078 0.000000
5.872078 0.000000
5.876078 0.000000
5.880078 0.000000
5.884078 0.000000
5.888079 0.000000
5.892079 0.000000
5.896079 0.000000
5.900079 0.000000
5.904079 0.000000
5.908079 0.000000
5.912079 0.000000
5.916079 0.000000
5.920079 0.000000
5.924079 0.000000
5.928079 0.000000
5.932079 0.000000
5.936079 0.000000
5.940079 0.000000
5.944079 0.000000
5.948079 0.000000
5.952079 0.000000
5.956079 0.000000
5.960079 0.000000
5.964080 0.000000
5.968080 0.000000
5.972080 0.000000
5.976080 0.000000
5.980080 0.000000
5.984080 0.000000
5.988080 0.000000
5.992080 0.000000
5.996080 0.000000
6.000080 0.000000
6.004080 0.000000
6.008080 0.000000
6.012080 0.000000
6.016080 0.000001
6.020080 0.000001
6.024080 0.000002
6.028080 0.000002
6.032080 0.000004
6.036080 0.000006
6.040081 0.000009
6.044081 0.000012
6.048081 0.000018
6.052081 0.000024
6.056081 0.000033
6.060081 0.000043
6.064081 0.000054
6.068081 0.000067
6.072081 0.000082
6.076081 0.000096
6.080081 0.000111
6.084081 0.000124
6.088081 0.000136
6.092081 0.000145
6.096081 0.000150
6.100081 0.000152
6.104081 0.000150
6.108081 0.000144
6.112081 0.000135
6.116082 0.000124
6.120082 0.000110
6.124082 0.000096
6.128082 0.000081
6.132082 0.000067
6.136082 0.000054
6.140082 0.000042
6.144082 0.000032
6.148082 0.000024
6.152082 0.000017
6.156082 0.000012
6.160082 0.000008
6.164082 0.000006
6.168082 0.000003
6.172082 0.000000
6.176082 -0.000004
6.180082 -0.000013
6.184082 -0.000028
6.188083 -0.000049
6.192083 -0.000072
6.196083 -0.000082
6.200083 -0.000055
6.204083 0.000047
6.208083 0.000262
6.212083 0.000574
6.216083 0.000873
6.220083 0.001000
6.224083 0.000879
6.228083 0.000587
6.232083 0.000277
6.236083 0.000043
6.240083 -0.000105
6.244083 -0.000193
6.248083 -0.000235
6.252083 -0.000233
6.256083 -0.000191
6.260083 -0.000128
6.264084 -0.000064
6.268084 -0.000012
6.272084 0.000024
6.276084 0.000047
6.280084 0.000063
6.284084 0.000078
6.288084 0.000092
6.292084 0.000107
6.296084 0.000123
6.300084 0.000140
6.304084 0.000158
6.308084 0.000176
6.312084 0.000194
6.316084 0.000213
6.320084 0.000230
6.324084 0.000247
6.328084 0.000262
6.332084 0.000275
6.336084 0.000287
6.340085 0.000295
6.344085 0.000301
6.348085 0.000304
6.352085 0.000304
6.356085 0.000301
6.360085 0.000295
6.364085 0.000286
6.368085 0.000275
6.372085 0.000261
6.376085 0.000246
6.380085 0.000229
6.384085 0.000212
6.388085 0.000193
6.392085 0.000175
6.396085 0.000157
6.400085 0.000139
6.404085 0.000122
6.408085 0.000106
6.412085 0.000091
6.416086 0.000078
6.420086 0.000066
6.424086 0.000055
6.428086 0.000045
6.432086 0.000037
6.436086 0.000030
6.440086 0.000024
6.444086 0.000019
6.448086 0.000015
6.452086 0.000012
6.456086 0.000009
6.460086 0.000007
6.464086 0.000005
6.468086 0.000004
6.472086 0.000003
6.476086 0.000002
6.480086 0.000002
6.484086 0.000001
6.488087 0.000001
6.492087 0.000001
6.496087 0.000000
6.500087 0.000000
6.504087 0.000000
6.508087 0.000000
6.512087 0.000000
6.516087 0.000000
6.520087 0.000000
6.524087 0.000000
6.528087 0.000000
6.532087 0.000000
6.536087 0.000000
6.540087 0.000000
6.544087 0.000000
6.548087 0.000000
6.552087 0.000000
6.556087 0.000000
6.560087 0.000000
6.564088 0.000000
6.568088 0.000000
6.572088 0.000000
6.576088 0.000000
6.580088 0.000000
6.584088 0.000000
6.588088 0.000000
6.592088 0.000000
6.596088 0.000000
6.600088 0.000000
6.604088 0.000000
6.608088 0.000000
6.612088 0.000000
6.616088 0.000000
6.620088 0.000000
6.624088 0.000000
6.628088 0.000000
6.632088 0.000000
6.636088 0.000000
6.640089 0.000000
6.644089 0.000000
6.648089 0.000000
6.652089 0.000000
6.656089 0.000000
6.660089 0.000000
6.664089 0.000000
6.668089 0.000000
6.672089 0.000000
6.676089 0.000000
6.680089 0.000000
6.684089 0.000000
6.688089 0.000000
6.692089 0.000000
6.696089 0.000000
6.700089 0.000000
6.704089 0.000000
6.708089 0.000000
6.712089 0.000000
6.716090 0.000000
6.720090 0.000000
6.724090 0.000000
6.728090 0.000000
6.732090 0.000000
6.736090 0.000000
6.740090 0.000000
6.744090 0.000000
6.748090 0.000000
6.752090 0.000000
6.756090 0.000000
6.760090 0.000000
6.764090 0.000000
6.768090 0.000000
6.772090 0.000000
6.776090 0.000000
6.780090 0.000000
6.784090 0.000000
6.788091 0.000000
6.792091 0.000000
6.796091 0.000000
6.800091 0.000000
6.804091 0.000000
6.808091 0.000000
6.812091 0.000000
6.816091 0.000000
6.820091 0.000000
6.824091 0.000000
6.828091 0.000000
6.832091 0.000000
6.836091 0.000000
6.840091 0.000000
6.844091 0.000000
6.848091 0.000000
6.852091 0.000000
6.856091 0.000000
6.860091 0.000000
6.864092 0.000000
6.868092 0.000000
6.872092 0.000000
6.876092 0.000000
6.880092 0.000000
6.884092 0.000000
6.888092 0.000000
6.892092 0.000000
6.896092 0.000000
6.900092 0.000000
6.904092 0.000000
6.908092 0.000000
6.912092 0.000000
6.916092 0.000000
6.920092 0.000000
6.924092 0.000000
6.928092 0.000000
6.932092 0.000000
6.936092 0.000000
6.940093 0.000000
6.944093 0.000000
6.948093 0.000000
6.952093 0.000000
6.956093 0.000000
6.960093 0.000000
6.964093 0.000000
6.968093 0.000000
6.972093 0.000000
6.976093 0.000000
6.980093 0.000000
6.984093 0.000000
6.988093 0.000000
6.992093 0.000000
6.996093 0.000000
7.000093 0.000000
7.004093 0.000000
7.008093 0.000000
7.012093 0.000000
7.016094 0.000001
7.020094 0.000001
7.024094 0.000002
7.028094 0.000002
7.032094 0.000004
7.036094 0.000006
7.040094 0.000009
7.044094 0.000012
7.048094 0.000018
7.052094 0.000024
7.056094 0.000033
7.060094 0.000043
7.064094 0.000054
7.068094 0.000067
7.072094 0.000082
7.076094 0.000096
7.080094 0.000111
7.084094 0.000124
7.088095 0.000136
7.092095 0.000145
7.096095 0.000150
7.100095 0.000152
7.104095 0.000150
7.108095 0.000144
7.112095 0.000135
7.116095 0.000124
7.120095 0.000110
7.124095 0.000096
7.128095 0.000081
7.132095 0.000067
7.136095 0.000054
7.140095 0.000042
7.144095 0.000032
7.148095 0.000024
7.152095 0.000017
7.156095 0.000012
7.160095 0.000008
7.164096 0.000006
7.168096 0.000003
7.172096 0.000000
7.176096 -0.000004
7.180096 -0.000013
7.184096 -0.000028
7.188096 -0.000049
7.192096 -0.000072
7.196096 -0.000082
7.200096 -0.000055
7.204096 0.000048
7.208096 0.000263
7.212096 0.000575
7.216096 0.000873
7.220096 0.001000
7.224096 0.000878
7.228096 0.000586
7.232096 0.000276
7.236096 0.000043
7.240097 -0.000105
7.244097 -0.000193
7.248097 -0.000235
7.252097 -0.000233
7.256097 -0.000191
7.260097 -0.000128
7.264097 -0.000064
7.268097 -0.000012
7.272097 0.000024
7.276097 0.000047
7.280097 0.000063
7.284097 0.000078
7.288097 0.000092
7.292097 0.000107
7.296097 0.000123
7.300097 0.000140
7.304097 0.000158
7.308097 0.000176
7.312097 0.000194
7.316098 0.000213
7.320098 0.000230
7.324098 0.000247
7.328098 0.000262
7.332098 0.000275
7.336098 0.000287
7.340098 0.000295
7.344098 0.000301
7.348098 0.000304
7.352098 0.000304
7.356098 0.000301
7.360098 0.000295
7.364098 0.000286
7.368098 0.000275
7.372098 0.000261
7.376098 0.000246
7.380098 0.000229
7.384098 0.000212
7.388099 0.000193
7.392099 0.000175
7.396099 0.000157
7.400099 0.000139
7.404099 0.000122
7.408099 0.000106
7.412099 0.000091
7.416099 0.000078
7.420099 0.000066
7.424099 0.000055
7.428099 0.000045
7.432099 0.000037
7.436099 0.000030
7.440099 0.000024
7.444099 0.000019
7.448099 0.000015
7.452099 0.000012
7.456099 0.000009
7.460099 0.000007
7.464100 0.000005
7.468100 0.000004
7.472100 0.000003
7.476100 0.000002
7.480100 0.000002
7.484100 0.000001
7.488100 0.000001
7.492100 0.000001
7.496100 0.000000
7.500100 0.000000
7.504100 0.000000
7.508100 0.000000
7.512100 0.000000
7.516100 0.000000
7.520100 0.000000
7.524100 0.000000
7.528100 0.000000
7.532100 0.000000
7.536100 0.000000
7.540101 0.000000
7.544101 0.000000
7.548101 0.000000
7.552101 0.000000
7.556101 0.000000
7.560101 0.000000
7.564101 0.000000
7.568101 0.000000
7.572101 0.000000
7.576101 0.000000
7.580101 0.000000
7.584101 0.000000
7.588101 0.000000
7.592101 0.000000
7.596101 0.000000
7.600101 0.000000
7.604101 0.000000
7.608101 0.000000
7.612101 0.000000
7.616102 0.000000
7.620102 0.000000
7.624102 0.000000
7.628102 0.000000
7.632102 0.000000
7.636102 0.000000
7.640102 0.000000
7.644102 0.000000
7.648102 0.000000
7.652102 0.000000
7.656102 0.000000
7.660102 0.000000
7.664102 0.000000
7.668102 0.000000
7.672102 0.000000
7.676102 0.000000
7.680102 0.000000
7.684102 0.000000
7.688103 0.000000
7.692103 0.000000
7.696103 0.000000
7.700103 0.000000
7.704103 0.000000
7.708103 0.000000
7.712103 0.000000
7.716103 0.000000
7.720103 0.000000
7.724103 0.000000
7.728103 0.000000
7.732103 0.000000
7.736103 0.000000
7.740103 0.000000
7.744103 0.000000
7.748103 0.000000
7.752103 0.000000
7.756103 0.000000
7.760103 0.000000
7.764104 0.000000
7.768104 0.000000
7.772104 0.000000
7.776104 0.000000
7.780104 0.000000
7.784104 0.000000
7.788104 0.000000
7.792104 0.000000
7.796104 0.000000
7.800104 0.000000
7.804104 0.000000
7.808104 0.000000
7.812104 0.000000
7.816104 0.000000
7.820104 0.000000
7.824104 0.000000
7.828104 0.000000
7.832104 0.000000
7.836104 0.000000
7.840105 0.000000
7.844105 0.000000
7.848105 0.000000
7.852105 0.000000
7.856105 0.000000
7.860105 0.000000
7.864105 0.000000
7.868105 0.000000
7.872105 0.000000
7.876105 0.000000
7.880105 0.000000
7.884105 0.000000
7.888105 0.000000
7.892105 0.000000
7.896105 0.000000
7.900105 0.000000
7.904105 0.000000
7.908105 0.000000
7.912105 0.000000
7.916106 0.000000
7.920106 0.000000
7.924106 0.000000
7.928106 0.000000
7.932106 0.000000
7.936106 0.000000
7.940106 0.000000
7.944106 0.000000
7.948106 0.000000
7.952106 0.000000
7.956106 0.000000
7.960106 0.000000
7.964106 0.000000
7.968106 0.000000
7.972106 0.000000
7.976106 0.000000
7.980106 0.000000
7.984106 0.000000
7.988107 0.000000
7.992107 0.000000
7.996107 0.000000
8.000107 0.000000
8.004107 0.000000
8.008107 0.000000
8.012107 0.000000
8.016107 0.000001
8.020107 0.000001
8.024107 0.000002
8.028107 0.000002
8.032107 0.000004
8.036107 0.000006
8.040107 0.000009
8.044107 0.000013
8.048107 0.000018
8.052107 0.000024
8.056107 0.000033
8.060107 0.000043
8.064108 0.000054
8.068108 0.000067
8.072108 0.000082
8.076108 0.000096
8.080108 0.000111
8.084108 0.000124
8.088108 0.000136
8.092108 0.000145
8.096108 0.000150
8.100108 0.000152
8.104108 0.000150
8.108108 0.000144
8.112108 0.000135
8.116108 0.000124
8.120108 0.000110
8.124108 0.000096
8.128108 0.000081
8.132108 0.000067
8.136108 0.000054
8.140109 0.000042
8.144109 0.000032
8.148109 0.000024
8.152109 0.000017
8.156109 0.000012
8.160109 0.000008
8.164109 0.000006
8.168109 0.000003
8.172109 0.000000
8.176109 -0.000004
8.180109 -0.000013
8.184109 -0.000028
8.188109 -0.000049
8.192109 -0.000072
8.196109 -0.000082
8.200109 -0.000055
8.204109 0.000048
8.208109 0.000264
8.212109 0.000576
8.216110 0.000874
8.220110 0.001000
8.224110 0.000877
8.228110 0.000585
8.232110 0.000275
8.236110 0.000042
8.240110 -0.000106
8.244110 -0.000193
8.248110 -0.000235
8.252110 -0.000233
8.256110 -0.000191
8.260110 -0.000128
8.264110 -0.000063
8.268110 -0.000012
8.272110 0.000024
8.276110 0.000047
8.280110 0.000063
8.284110 0.000078
8.288111 0.000092
8.292111 0.000107
8.296111 0.000123
8.300111 0.000140
8.304111 0.000158
8.308111 0.000176
8.312111 0.000194
8.316111 0.000213
8.320111 0.000230
8.324111 0.000247
8.328111 0.000262
8.332111 0.000275
8.336111 0.000287
8.340111 0.000295
8.344111 0.000301
8.348111 0.000304
8.352111 0.000304
8.356111 0.000301
8.360111 0.000295
8.364112 0.000286
8.368112 0.000275
8.372112 0.000261
8.376112 0.000246
8.380112 0.000229
8.384112 0.000212
8.388112 0.000193
8.392112 0.000175
8.396112 0.000157
8.400112 0.000139
8.404112 0.000122
8.408112 0.000106
8.412112 0.000091
8.416112 0.000078
8.420112 0.000066
8.424112 0.000055
8.428112 0.000045
8.432112 0.000037
8.436112 0.000030
8.440113 0.000024
8.444113 0.000019
8.448113 0.000015
8.452113 0.000012
8.456113 0.000009
8.460113 0.000007
8.464113 0.000005
8.468113 0.000004
8.472113 0.000003
8.476113 0.000002
8.480113 0.000002
8.484113 0.000001
8.488113 0.000001
8.492113 0.000001
8.496113 0.000000
8.500113 0.000000
8.504113 0.000000
8.508113 0.000000
8.512113 0.000000
8.516114 0.000000
8.520114 0.000000
8.524114 0.000000
8.528114 0.000000
8.532114 0.000000
8.536114 0.000000
8.540114 0.000000
8.544114 0.000000
8.548114 0.000000
8.552114 0.000000
8.556114 0.000000
8.560114 0.000000
8.564114 0.000000
8.568114 0.000000
8.572114 0.000000
8.576114 0.000000
8.580114 0.000000
8.584114 0.000000
8.588115 0.000000
8.592115 0.000000
8.596115 0.000000
8.600115 0.000000
8.604115 0.000000
8.608115 0.000000
8.612115 0.000000
8.616115 0.000000
8.620115 0.000000
8.624115 0.000000
8.628115 0.000000
8.632115 0.000000
8.636115 0.000000
8.640115 0.000000
8.644115 0.000000
8.648115 0.000000
8.652115 0.000000
8.656115 0.000000
8.660115 0.000000
8.664116 0.000000
8.668116 0.000000
8.672116 0.000000
8.676116 0.000000
8.680116 0.000000
8.684116 0.000000
8.688116 0.000000
8.692116 0.000000
8.696116 0.000000
8.700116 0.000000
8.704116 0.000000
8.708116 0.000000
8.712116 0.000000
8.716116 0.000000
8.720116 0.000000
8.724116 0.000000
8.728116 0.000000
8.732116 0.000000
8.736116 0.000000
8.740117 0.000000
8.744117 0.000000
8.748117 0.000000
8.752117 0.000000
8.756117 0.000000
8.760117 0.000000
8.764117 0.000000
8.768117 0.000000
8.772117 0.000000
8.776117 0.000000
8.780117 0.000000
8.784117 0.000000
8.788117 0.000000
8.792117 0.000000
8.796117 0.000000
8.800117 0.000000
8.804117 0.000000
8.808117 0.000000
8.812117 0.000000
8.816118 0.000000
8.820118 0.000000
8.824118 0.000000
8.828118 0.000000
8.832118 0.000000
8.836118 0.000000
8.840118 0.000000
8.844118 0.000000
8.848118 0.000000
8.852118 0.000000
8.856118 0.000000
8.860118 0.000000
8.864118 0.000000
8.868118 0.000000
8.872118 0.000000
8.876118 0.000000
8.880118 0.000000
8.884118 0.000000
8.888119 0.000000
8.892119 0.000000
8.896119 0.000000
8.900119 0.000000
8.904119 0.000000
8.908119 0.000000
8.912119 0.000000
8.916119 0.000000
8.920119 0.000000
8.924119 0.000000
8.928119 0.000000
8.932119 0.000000
8.936119 0.000000
8.940119 0.000000
8.944119 0.000000
8.948119 0.000000
8.952119 0.000000
8.956119 0.000000
8.960119 0.000000
8.964120 0.000000
8.968120 0.000000
8.972120 0.000000
8.976120 0.000000
8.980120 0.000000
8.984120 0.000000
8.988120 0.000000
8.992120 0.000000
8.996120 0.000000
9.000120 0.000000
9.004120 0.000000
9.008120 0.000000
9.012120 0.000000
9.016120 0.000001
9.020120 0.000001
9.024120 0.000002
9.028120 0.000002
9.032120 0.000004
9.036120 0.000006
9.040121 0.000009
9.044121 0.000013
9.048121 0.000018
9.052121 0.000024
9.056121 0.000033
9.060121 0.000043
9.064121 0.000054
9.068121 0.000068
9.072121 0.000082
9.076121 0.000096
9.080121 0.000111
9.084121 0.000124
9.088121 0.000136
9.092121 0.000145
9.096121 0.000150
9.100121 0.000152
9.104121 0.000150
9.108121 0.000144
9.112121 0.000135
9.116122 0.000124
9.120122 0.000110
9.124122 0.000096
9.128122 0.000081
9.132122 0.000067
9.136122 0.000054
9.140122 0.000042
9.144122 0.000032
9.148122 0.000024
9.152122 0.000017
9.156122 0.000012
9.160122 0.000008
9.164122 0.000006
9.168122 0.000003
9.172122 0.000000
9.176122 -0.000004
9.180122 -0.000013
9.184122 -0.000028
9.188123 -0.000049
9.192123 -0.000072
9.196123 -0.000082
9.200123 -0.000055
9.204123 0.000049
9.208123 0.000265
9.212123 0.000577
9.216123 0.000875
9.220123 0.001000
9.224123 0.000876
9.228123 0.000584
9.232123 0.000274
9.236123 0.000041
9.240123 -0.000106
9.244123 -0.000194
9.248123 -0.000235
9.252123 -0.000232
9.256123 -0.000191
9.260123 -0.000128
9.264124 -0.000063
9.268124 -0.000012
9.272124 0.000024
9.276124 0.000047
9.280124 0.000063
9.284124 0.000078
9.288124 0.000092
9.292124 0.000107
9.296124 0.000123
9.300124 0.000140
9.304124 0.000158
9.308124 0.000176
9.312124 0.000194
9.316124 0.000213
9.320124 0.000230
9.324124 0.000247
9.328124 0.000262
9.332124 0.000276
9.336124 0.000287
9.340125 0.000295
9.344125 0.000301
9.348125 0.000304
9.352125 0.000304
9.356125 0.000301
9.360125 0.000295
9.364125 0.000286
9.368125 0.000275
9.372125 0.000261
9.376125 0.000246
9.380125 0.000229
9.384125 0.000212
9.388125 0.000193
9.392125 0.000175
9.396125 0.000157
9.400125 0.000139
9.404125 0.000122
9.408125 0.000106
9.412125 0.000091
9.416126 0.000078
9.420126 0.000065
9.424126 0.000055
9.428126 0.000045
9.432126 0.000037
9.436126 0.000030
9.440126 0.000024
9.444126 0.000019
9.448126 0.000015
9.452126 0.000012
9.456126 0.000009
9.460126 0.000007
9.464126 0.000005
9.468126 0.000004
9.472126 0.000003
9.476126 0.000002
9.480126 0.000002
9.484126 0.000001
9.488127 0.000001
9.492127 0.000001
9.496127 0.000000
9.500127 0.000000
9.504127 0.000000
9.508127 0.000000
9.512127 0.000000
9.516127 0.000000
9.520127 0.000000
9.524127 0.000000
9.528127 0.000000
9.532127 0.000000
9.536127 0.000000
9.540127 0.000000
9.544127 0.000000
9.548127 0.000000
9.552127 0.000000
9.556127 0.000000
9.560127 0.000000
9.564128 0.000000
9.568128 0.000000
9.572128 0.000000
9.576128 0.000000
9.580128 0.000000
9.584128 0.000000
9.588128 0.000000
9.592128 0.000000
9.596128 0.000000
9.600128 0.000000
9.604128 0.000000
9.608128 0.000000
9.612128 0.000000
9.616128 0.000000
9.620128 0.000000
9.624128 0.000000
9.628128 0.000000
9.632128 0.000000
9.636128 0.000000
9.640129 0.000000
9.644129 0.000000
9.648129 0.000000
9.652129 0.000000
9.656129 0.000000
9.660129 0.000000
9.664129 0.000000
9.668129 0.000000
9.672129 0.000000
9.676129 0.000000
9.680129 0.000000
9.684129 0.000000
9.688129 0.000000
9.692129 0.000000
9.696129 0.000000
9.700129 0.000000
9.704129 0.000000
9.708129 0.000000
9.712129 0.000000
9.716130 0.000000
9.720130 0.000000
9.724130 0.000000
9.728130 0.000000
9.732130 0.000000
9.736130 0.000000
9.740130 0.000000
9.744130 0.000000
9.748130 0.000000
9.752130 0.000000
9.756130 0.000000
9.760130 0.000000
9.764130 0.000000
9.768130 0.000000
9.772130 0.000000
9.776130 0.000000
9.780130 0.000000
9.784130 0.000000
9.788131 0.000000
9.792131 0.000000
9.796131 0.000000
9.800131 0.000000
9.804131 0.000000
9.808131 0.000000
9.812131 0.000000
9.816131 0.000000
9.820131 0.000000
9.824131 0.000000
9.828131 0.000000
9.832131 0.000000
9.836131 0.000000
9.840131 0.000000
9.844131 0.000000
9.848131 0.000000
9.852131 0.000000
9.856131 0.000000
9.860131 0.000000
9.864132 0.000000
9.868132 0.000000
9.872132 0.000000
9.876132 0.000000
9.880132 0.000000
9.884132 0.000000
9.888132 0.000000
9.892132 0.000000
9.896132 0.000000
9.900132 0.000000
9.904132 0.000000
9.908132 0.000000
9.912132 0.000000
9.916132 0.000000
9.920132 0.000000
9.924132 0.000000
9.928132 0.000000
9.932132 0.000000
9.936132 0.000000
9.940133 0.000000
9.944133 0.000000
9.948133 0.000000
9.952133 0.000000
9.956133 0.000000
9.960133 0.000000
9.964133 0.000000
9.968133 0.000000
9.972133 0.000000
9.976133 0.000000
9.980133 0.000000
9.984133 0.000000
9.988133 0.000000
9.992133 0.000000
9.996133 0.000000
10.000133 0.000000
10.004133 0.000000
10.008133 0.000000
10.012133 0.000000
10.016134 0.000001
10.020134 0.000001
10.024134 0.000002
10.028134 0.000002
10.032134 0.000004
10.036134 0.000006
10.040134 0.000009
10.044134 0.000013
10.048134 0.000018
10.052134 0.000024
10.056134 0.000033
10.060134 0.000043
10.064134 0.000054
10.068134 0.000068
10.072134 0.000082
10.076134 0.000097
10.080134 0.000111
10.084134 0.000124
10.088135 0.000136
10.092135 0.000145
10.096135 0.000150
10.100135 0.000152
10.104135 0.000150
10.108135 0.000144
10.112135 0.000135
10.116135 0.000124
10.120135 0.000110
10.124135 0.000096
10.128135 0.000081
10.132135 0.000067
10.136135 0.000054
10.140135 0.000042
10.144135 0.000032
10.148135 0.000024
10.152135 0.000017
10.156135 0.000012
10.160135 0.000008
10.164136 0.000006
10.168136 0.000003
10.172136 0.000000
10.176136 -0.000004
10.180136 -0.000013
10.184136 -0.000028
10.188136 -0.000049
10.192136 -0.000072
10.196136 -0.000082
10.200136 -0.000055
10.204136 0.000049
10.208136 0.000266
10.212136 0.000578
10.216136 0.000876
10.220136 0.001000
10.224136 0.000876
10.228136 0.000583
10.232136 0.000273
10.236136 0.000041
10.240137 -0.000106
10.244137 -0.000194
10.248137 -0.000235
10.252137 -0.000232
10.256137 -0.000191
10.260137 -0.000127
10.264137 -0.000063
10.268137 -0.000011
10.272137 0.000024
10.276137 0.000047
10.280137 0.000064
10.284137 0.000078
10.288137 0.000092
10.292137 0.000107
10.296137 0.000123
10.300137 0.000140
10.304137 0.000158
10.308137 0.000176
10.312137 0.000195
10.316138 0.000213
10.320138 0.000230
10.324138 0.000247
10.328138 0.000262
10.332138 0.000276
10.336138 0.000287
10.340138 0.000295
10.344138 0.000301
10.348138 0.000304
10.352138 0.000304
10.356138 0.000301
10.360138 0.000295
10.364138 0.000286
10.368138 0.000275
10.372138 0.000261
10.376138 0.000246
10.380138 0.000229
10.384138 0.000212
10.388139 0.000193
10.392139 0.000175
10.396139 0.000157
10.400139 0.000139
10.404139 0.000122
10.408139 0.000106
10.412139 0.000091
10.416139 0.000078
10.420139 0.000065
10.424139 0.000055
10.428139 0.000045
10.432139 0.000037
10.436139 0.000030
10.440139 0.000024
10.444139 0.000019
10.448139 0.000015
10.452139 0.000012
10.456139 0.000009
10.460139 0.000007
10.464140 0.000005
10.468140 0.000004
10.472140 0.000003
10.476140 0.000002
10.480140 0.000002
10.484140 0.000001
10.488140 0.000001
10.492140 0.000001
10.496140 0.000000
10.500140 0.000000
10.504140 0.000000
10.508140 0.000000
10.512140 0.000000
10.516140 0.000000
10.520140 0.000000
10.524140 0.000000
10.528140 0.000000
10.532140 0.000000
10.536140 0.000000
10.540141 0.000000
10.544141 0.000000
10.548141 0.000000
10.552141 0.000000
10.556141 0.000000
10.560141 0.000000
10.564141 0.000000
10.568141 0.000000
10.572141 0.000000
10.576141 0.000000
10.580141 0.000000
10.584141 0.000000
10.588141 0.000000
10.592141 0.000000
10.596141 0.000000
10.600141 0.000000
10.604141 0.000000
10.608141 0.000000
10.612141 0.000000
10.616142 0.000000
10.620142 0.000000
10.624142 0.000000
10.628142 0.000000
10.632142 0.000000
10.636142 0.000000
10.640142 0.000000
10.644142 0.000000
10.648142 0.000000
10.652142 0.000000
10.656142 0.000000
10.660142 0.000000
10.664142 0.000000
10.668142 0.000000
10.672142 0.000000
10.676142 0.000000
10.680142 0.000000
10.684142 0.000000
10.688143 0.000000
10.692143 0.000000
10.696143 0.000000
10.700143 0.000000
10.704143 0.000000
10.708143 0.000000
10.712143 0.000000
10.716143 0.000000
10.720143 0.000000
10.724143 0.000000
10.728143 0.000000
10.732143 0.000000
10.736143 0.000000
10.740143 0.000000
10.744143 0.000000
10.748143 0.000000
10.752143 0.000000
10.756143 0.000000
10.760143 0.000000
10.764144 0.000000
10.768144 0.000000
10.772144 0.000000
10.776144 0.000000
10.780144 0.000000
10.784144 0.000000
10.788144 0.000000
10.792144 0.000000
10.796144 0.000000
10.800144 0.000000
10.804144 0.000000
10.808144 0.000000
10.812144 0.000000
10.816144 0.000000
10.820144 0.000000
10.824144 0.000000
10.828144 0.000000
10.832144 0.000000
10.836144 0.000000
10.840145 0.000000
10.844145 0.000000
10.848145 0.000000
10.852145 0.000000
10.856145 0.000000
10.860145 0.000000
10.864145 0.000000
10.868145 0.000000
10.872145 0.000000
10.876145 0.000000
10.880145 0.000000
10.884145 0.000000
10.888145 0.000000
10.892145 0.000000
10.896145 0.000000
10.900145 0.000000
10.904145 0.000000
10.908145 0.000000
10.912145 0.000000
10.916146 0.000000
10.920146 0.000000
10.924146 0.000000
10.928146 0.000000
10.932146 0.000000
10.936146 0.000000
10.940146 0.000000
10.944146 0.000000
10.948146 0.000000
10.952146 0.000000
10.956146 0.000000
10.960146 0.000000
10.964146 0.000000
10.968146 0.000000
10.972146 0.000000
10.976146 0.000000
10.980146 0.000000
10.984146 0.000000
10.988147 0.000000
10.992147 0.000000
10.996147 0.000000
11.000147 0.000000
11.004147 0.000000
11.008147 0.000000
11.012147 0.000000
11.016147 0.000001
11.020147 0.000001
11.024147 0.000002
11.028147 0.000002
11.032147 0.000004
11.036147 0.000006
11.040147 0.000009
11.044147 0.000013
11.048147 0.000018
11.052147 0.000024
11.056147 0.000033
11.060147 0.000043
11.064148 0.000054
11.068148 0.000068
11.072148 0.000082
11.076148 0.000097
11.080148 0.000111
11.084148 0.000125
11.088148 0.000136
11.092148 0.000145
11.096148 0.000150
11.100148 0.000152
11.104148 0.000150
11.108148 0.000144
11.112148 0.000135
11.116148 0.000124
11.120148 0.000110
11.124148 0.000095
11.128148 0.000081
11.132148 0.000067
11.136148 0.000054
11.140149 0.000042
11.144149 0.000032
11.148149 0.000024
11.152149 0.000017
11.156149 0.000012
11.160149 0.000008
11.164149 0.000006
11.168149 0.000003
11.172149 0.000000
11.176149 -0.000004
11.180149 -0.000013
11.184149 -0.000028
11.188149 -0.000050
11.192149 -0.000072
11.196149 -0.000082
11.200149 -0.000054
11.204149 0.000050
11.208149 0.000267
11.212149 0.000579
11.216150 0.000877
11.220150 0.001000
11.224150 0.000875
11.228150 0.000582
11.232150 0.000272
11.236150 0.000040
11.240150 -0.000107
11.244150 -0.000194
11.248150 -0.000235
11.252150 -0.000232
11.256150 -0.000191
11.260150 -0.000127
11.264150 -0.000063
11.268150 -0.000011
11.272150 0.000024
11.276150 0.000047
11.280150 0.000064
11.284150 0.000078
11.288151 0.000092
11.292151 0.000107
11.296151 0.000123
11.300151 0.000140
11.304151 0.000158
11.308151 0.000176
11.312151 0.000195
11.316151 0.000213
11.320151 0.000230
11.324151 0.000247
11.328151 0.000262
11.332151 0.000276
11.336151 0.000287
11.340151 0.000295
11.344151 0.000301
11.348151 0.000304
11.352151 0.000304
11.356151 0.000301
11.360151 0.000295
11.364152 0.000286
11.368152 0.000275
11.372152 0.000261
11.376152 0.000246
11.380152 0.000229
11.384152 0.000211
11.388152 0.000193
11.392152 0.000175
11.396152 0.000156
11.400152 0.000139
11.404152 0.000122
11.408152 0.000106
11.412152 0.000091
11.416152 0.000078
11.420152 0.000065
11.424152 0.000055
11.428152 0.000045
11.432152 0.000037
11.436152 0.000030
11.440153 0.000024
11.444153 0.000019
11.448153 0.000015
11.452153 0.000012
11.456153 0.000009
11.460153 0.000007
11.464153 0.000005
11.468153 0.000004
11.472153 0.000003
11.476153 0.000002
11.480153 0.000002
11.484153 0.000001
11.488153 0.000001
11.492153 0.000001
11.496153 0.000000
11.500153 0.000000
11.504153 0.000000
11.508153 0.000000
11.512153 0.000000
11.516154 0.000000
11.520154 0.000000
11.524154 0.000000
11.528154 0.000000
11.532154 0.000000
11.536154 0.000000
11.540154 0.000000
11.544154 0.000000
11.548154 0.000000
11.552154 0.000000
11.556154 0.000000
11.560154 0.000000
11.564154 0.000000
11.568154 0.000000
11.572154 0.000000
11.576154 0.000000
11.580154 0.000000
11.584154 0.000000
11.588155 0.000000
11.592155 0.000000
11.596155 0.000000
11.600155 0.000000
11.604155 0.000000
11.608155 0.000000
11.612155 0.000000
11.616155 0.000000
11.620155 0.000000
11.624155 0.000000
11.628155 0.000000
11.632155 0.000000
11.636155 0.000000
11.640155 0.000000
11.644155 0.000000
11.648155 0.000000
11.652155 0.000000
11.656155 0.000000
11.660155 0.000000
11.664156 0.000000
11.668156 0.000000
11.672156 0.000000
11.676156 0.000000
11.680156 0.000000
11.684156 0.000000
11.688156 0.000000
11.692156 0.000000
11.696156 0.000000
11.700156 0.000000
11.704156 0.000000
11.708156 0.000000
11.712156 0.000000
11.716156 0.000000
11.720156 0.000000
11.724156 0.000000
11.728156 0.000000
11.732156 0.000000
11.736156 0.000000
11.740157 0.000000
11.744157 0.000000
11.748157 0.000000
11.752157 0.000000
11.756157 0.000000
11.760157 0.000000
11.764157 0.000000
11.768157 0.000000
11.772157 0.000000
11.776157 0.000000
11.780157 0.000000
11.784157 0.000000
11.788157 0.000000
11.792157 0.000000
11.796157 0.000000
11.800157 0.000000
11.804157 0.000000
11.808157 0.000000
11.812157 0.000000
11.816158 0.000000
11.820158 0.000000
11.824158 0.000000
11.828158 0.000000
11.832158 0.000000
11.836158 0.000000
11.840158 0.000000
11.844158 0.000000
11.848158 0.000000
11.852158 0.000000
11.856158 0.000000
11.860158 0.000000
11.864158 0.000000
11.868158 0.000000
11.872158 0.000000
11.876158 0.000000
11.880158 0.000000
11.884158 0.000000
11.888159 0.000000
11.892159 0.000000
11.896159 0.000000
11.900159 0.000000
11.904159 0.000000
11.908159 0.000000
11.912159 0.000000
11.916159 0.000000
11.920159 0.000000
11.924159 0.000000
11.928159 0.000000
11.932159 0.000000
11.936159 0.000000
11.940159 0.000000
11.944159 0.000000
11.948159 0.000000
11.952159 0.000000
11.956159 0.000000
11.960159 0.000000
11.964160 0.000000
11.968160 0.000000
11.972160 0.000000
11.976160 0.000000
11.980160 0.000000
11.984160 0.000000
11.988160 0.000000
11.992160 0.000000
11.996160 0.000000
12.000160 0.000000
12.004160 0.000000
12.008160 0.000000
12.012160 0.000000
12.016160 0.000001
12.020160 0.000001
12.024160 0.000002
12.028160 0.000002
12.032160 0.000004
12.036160 0.000006
12.040161 0.000009
12.044161 0.000013
12.048161 0.000018
12.052161 0.000024
12.056161 0.000033
12.060161 0.000043
12.064161 0.000054
12.068161 0.000068
12.072161 0.000082
12.076161 0.000097
12.080161 0.000111
12.084161 0.000125
12.088161 0.000136
12.092161 0.000145
12.096161 0.000150
12.100161 0.000152
12.104161 0.000150
12.108161 0.000144
12.112161 0.000135
12.116162 0.000124
12.120162 0.000110
12.124162 0.000095
12.128162 0.000081
12.132162 0.000067
12.136162 0.000053
12.140162 0.000042
12.144162 0.000032
12.148162 0.000024
12.152162 0.000017
12.156162 0.000012
12.160162 0.000008
12.164162 0.000005
12.168162 0.000003
12.172162 0.000000
12.176162 -0.000004
12.180162 -0.000013
12.184162 -0.000028
12.188163 -0.000050
12.192163 -0.000072
12.196163 -0.000082
12.200163 -0.000054
12.204163 0.000050
12.208163 0.000267
12.212163 0.000580
12.216163 0.000877
12.220163 0.001000
12.224163 0.000874
12.228163 0.000581
12.232163 0.000271
12.236163 0.000040
12.240163 -0.000107
12.244163 -0.000194
12.248163 -0.000235
12.252163 -0.000232
12.256163 -0.000190
12.260163 -0.000127
12.264164 -0.000063
12.268164 -0.000011
12.272164 0.000024
12.276164 0.000047
12.280164 0.000064
12.284164 0.000078
12.288164 0.000092
12.292164 0.000107
12.296164 0.000123
12.300164 0.000140
12.304164 0.000158
12.308164 0.000176
12.312164 0.000195
12.316164 0.000213
12.320164 0.000231
12.324164 0.000247
12.328164 0.000262
12.332164 0.000276
12.336164 0.000287
12.340165 0.000295
12.344165 0.000301
12.348165 0.000304
12.352165 0.000304
12.356165 0.000301
12.360165 0.000295
12.364165 0.000286
12.368165 0.000275
12.372165 0.000261
12.376165 0.000246
12.380165 0.000229
12.384165 0.000211
12.388165 0.000193
12.392165 0.000175
12.396165 0.000156
12.400165 0.000139
12.404165 0.000122
12.408165 0.000106
12.412165 0.000091
12.416166 0.000078
12.420166 0.000065
12.424166 0.000055
12.428166 0.000045
12.432166 0.000037
12.436166 0.000030
12.440166 0.000024
12.444166 0.000019
12.448166 0.000015
12.452166 0.000012
12.456166 0.000009
12.460166 0.000007
12.464166 0.000005
12.468166 0.000004
12.472166 0.000003
12.476166 0.000002
12.480166 0.000002
12.484166 0.000001
12.488167 0.000001
12.492167 0.000001
12.496167 0.000000
12.500167 0.000000
12.504167 0.000000
12.508167 0.000000
12.512167 0.000000
12.516167 0.000000
12.520167 0.000000
12.524167 0.000000
12.528167 0.000000
12.532167 0.000000
12.536167 0.000000
12.540167 0.000000
12.544167 0.000000
12.548167 0.000000
12.552167 0.000000
12.556167 0.000000
12.560167 0.000000
12.564168 0.000000
12.568168 0.000000
12.572168 0.000000
12.576168 0.000000
12.580168 0.000000
12.584168 0.000000
12.588168 0.000000
12.592168 0.000000
12.596168 0.000000
12.600168 0.000000
12.604168 0.000000
12.608168 0.000000
12.612168 0.000000
12.616168 0.000000
12.620168 0.000000
12.624168 0.000000
12.628168 0.000000
12.632168 0.000000
12.636168 0.000000
12.640169 0.000000
12.644169 0.000000
12.648169 0.000000
12.652169 0.000000
12.656169 0.000000
12.660169 0.000000
12.664169 0.000000
12.668169 0.000000
12.672169 0.000000
12.676169 0.000000
12.680169 0.000000
12.684169 0.000000
12.688169 0.000000
12.692169 0.000000
12.696169 0.000000
12.700169 0.000000
12.704169 0.000000
12.708169 0.000000
12.712169 0.000000
12.716170 0.000000
12.720170 0.000000
12.724170 0.000000
12.728170 0.000000
12.732170 0.000000
12.736170 0.000000
12.740170 0.000000
12.744170 0.000000
12.748170 0.000000
12.752170 0.000000
12.756170 0.000000
12.760170 0.000000
12.764170 0.000000
12.768170 0.000000
12.772170 0.000000
12.776170 0.000000
12.780170 0.000000
12.784170 0.000000
12.788171 0.000000
12.792171 0.000000
12.796171 0.000000
12.800171 0.000000
12.804171 0.000000
12.808171 0.000000
12.812171 0.000000
12.816171 0.000000
12.820171 0.000000
12.824171 0.000000
12.828171 0.000000
12.832171 0.000000
12.836171 0.000000
12.840171 0.000000
12.844171 0.000000
12.848171 0.000000
12.852171 0.000000
12.856171 0.000000
12.860171 0.000000
12.864172 0.000000
12.868172 0.000000
12.872172 0.000000
12.876172 0.000000
12.880172 0.000000
12.884172 0.000000
12.888172 0.000000
12.892172 0.000000
12.896172 0.000000
12.900172 0.000000
12.904172 0.000000
12.908172 0.000000
12.912172 0.000000
12.916172 0.000000
12.920172 0.000000
12.924172 0.000000
12.928172 0.000000
12.932172 0.000000
12.936172 0.000000
12.940173 0.000000
12.944173 0.000000
12.948173 0.000000
12.952173 0.000000
12.956173 0.000000
12.960173 0.000000
12.964173 0.000000
12.968173 0.000000
12.972173 0.000000
12.976173 0.000000
12.980173 0.000000
12.984173 0.000000
12.988173 0.000000
12.992173 0.000000
12.996173 0.000000
13.000173 0.000000
13.004173 0.000000
13.008173 0.000000
13.012173 0.000000
13.016174 0.000001
13.020174 0.000001
13.024174 0.000002
13.028174 0.000002
13.032174 0.000004
13.036174 0.000006
13.040174 0.000009
13.044174 0.000013
13.048174 0.000018
13.052174 0.000024
13.056174 0.000033
13.060174 0.000043
13.064174 0.000055
13.068174 0.000068
13.072174 0.000082
13.076174 0.000097
13.080174 0.000111
13.084174 0.000125
13.088175 0.000136
13.092175 0.000145
13.096175 0.000150
13.100175 0.000152
13.104175 0.000150
13.108175 0.000144
13.112175 0.000135
13.116175 0.000123
13.120175 0.000110
13.124175 0.000095
13.128175 0.000081
13.132175 0.000067
13.136175 0.000053
13.140175 0.000042
13.144175 0.000032
13.148175 0.000024
13.152175 0.000017
13.156175 0.000012
13.160175 0.000008
13.164176 0.000005
13.168176 0.000003
13.172176 0.000000
13.176176 -0.000004
13.180176 -0.000013
13.184176 -0.000028
13.188176 -0.000050
13.192176 -0.000072
13.196176 -0.000082
13.200176 -0.000054
13.204176 0.000051
13.208176 0.000268
13.212176 0.000581
13.216176 0.000878
13.220176 0.001000
13.224176 0.000873
13.228176 0.000580
13.232176 0.000270
13.236176 0.000039
13.240177 -0.000107
13.244177 -0.000194
13.248177 -0.000236
13.252177 -0.000232
13.256177 -0.000190
13.260177 -0.000127
13.264177 -0.000062
13.268177 -0.000011
13.272177 0.000024
13.276177 0.000047
13.280177 0.000064
13.284177 0.000078
13.288177 0.000092
13.292177 0.000107
13.296177 0.000123
13.300177 0.000140
13.304177 0.000158
13.308177 0.000176
13.312177 0.000195
13.316178 0.000213
13.320178 0.000231
13.324178 0.000247
13.328178 0.000262
13.332178 0.000276
13.336178 0.000287
13.340178 0.000295
13.344178 0.000301
13.348178 0.000304
13.352178 0.000304
13.356178 0.000301
13.360178 0.000295
13.364178 0.000286
13.368178 0.000275
13.372178 0.000261
13.376178 0.000246
13.380178 0.000229
13.384178 0.000211
13.388179 0.000193
13.392179 0.000175
13.396179 0.000156
13.400179 0.000139
13.404179 0.000122
13.408179 0.000106
13.412179 0.000091
13.416179 0.000077
13.420179 0.000065
13.424179 0.000055
13.428179 0.000045
13.432179 0.000037
13.436179 0.000030
13.440179 0.000024
13.444179 0.000019
13.448179 0.000015
13.452179 0.000012
13.456179 0.000009
13.460179 0.000007
13.464180 0.000005
13.468180 0.000004
13.472180 0.000003
13.476180 0.000002
13.480180 0.000002
13.484180 0.000001
13.488180 0.000001
13.492180 0.000001
13.496180 0.000000
13.500180 0.000000
13.504180 0.000000
13.508180 0.000000
13.512180 0.000000
13.516180 0.000000
13.520180 0.000000
13.524180 0.000000
13.528180 0.000000
13.532180 0.000000
13.536180 0.000000
13.540181 0.000000
13.544181 0.000000
13.548181 0.000000
13.552181 0.000000
13.556181 0.000000
13.560181 0.000000
13.564181 0.000000
13.568181 0.000000
13.572181 0.000000
13.576181 0.000000
13.580181 0.000000
13.584181 0.000000
13.588181 0.000000
13.592181 0.000000
13.596181 0.000000
13.600181 0.000000
13.604181 0.000000
13.608181 0.000000
13.612181 0.000000
13.616182 0.000000
13.620182 0.000000
13.624182 0.000000
13.628182 0.000000
13.632182 0.000000
13.636182 0.000000
13.640182 0.000000
13.644182 0.000000
13.648182 0.000000
13.652182 0.000000
13.656182 0.000000
13.660182 0.000000
13.664182 0.000000
13.668182 0.000000
13.672182 0.000000
13.676182 0.000000
13.680182 0.000000
13.684182 0.000000
13.688183 0.000000
13.692183 0.000000
13.696183 0.000000
13.700183 0.000000
13.704183 0.000000
13.708183 0.000000
13.712183 0.000000
13.716183 0.000000
13.720183 0.000000
13.724183 0.000000
13.728183 0.000000
13.732183 0.000000
13.736183 0.000000
13.740183 0.000000
13.744183 0.000000
13.748183 0.000000
13.752183 0.000000
13.756183 0.000000
13.760183 0.000000
13.764184 0.000000
13.768184 0.000000
13.772184 0.000000
13.776184 0.000000
13.780184 0.000000
13.784184 0.000000
13.788184 0.000000
13.792184 0.000000
13.796184 0.000000
13.800184 0.000000
13.804184 0.000000
13.808184 0.000000
13.812184 0.000000
13.816184 0.000000
13.820184 0.000000
13.824184 0.000000
13.828184 0.000000
13.832184 0.000000
13.836184 0.000000
13.840185 0.000000
13.844185 0.000000
13.848185 0.000000
13.852185 0.000000
13.856185 0.000000
13.860185 0.000000
13.864185 0.000000
13.868185 0.000000
13.872185 0.000000
13.876185 0.000000
13.880185 0.000000
13.884185 0.000000
13.888185 0.000000
13.892185 0.000000
13.896185 0.000000
13.900185 0.000000
13.904185 0.000000
13.908185 0.000000
13.912185 0.000000
13.916186 0.000000
13.920186 0.000000
13.924186 0.000000
13.928186 0.000000
13.932186 0.000000
13.936186 0.000000
13.940186 0.000000
13.944186 0.000000
13.948186 0.000000
13.952186 0.000000
13.956186 0.000000
13.960186 0.000000
13.964186 0.000000
13.968186 0.000000
13.972186 0.000000
13.976186 0.000000
13.980186 0.000000
13.984186 0.000000
13.988187 0.000000
13.992187 0.000000
13.996187 0.000000
14.000187 0.000000
14.004187 0.000000
14.008187 0.000000
14.012187 0.000000
14.016187 0.000001
14.020187 0.000001
14.024187 0.000002
14.028187 0.000002
14.032187 0.000004
14.036187 0.000006
14.040187 0.000009
14.044187 0.000013
14.048187 0.000018
14.052187 0.000024
14.056187 0.000033
14.060187 0.000043
14.064188 0.000055
14.068188 0.000068
14.072188 0.000082
14.076188 0.000097
14.080188 0.000111
14.084188 0.000125
14.088188 0.000136
14.092188 0.000145
14.096188 0.000150
14.100188 0.000152
14.104188 0.000150
14.108188 0.000144
14.112188 0.000135
14.116188 0.000123
14.120188 0.000110
14.124188 0.000095
14.128188 0.000081
14.132188 0.000066
14.136188 0.000053
14.140189 0.000042
14.144189 0.000032
14.148189 0.000024
14.152189 0.000017
14.156189 0.000012
14.160189 0.000008
14.164189 0.000005
14.168189 0.000003
14.172189 0.000000
14.176189 -0.000004
14.180189 -0.000013
14.184189 -0.000028
14.188189 -0.000050
14.192189 -0.000072
14.196189 -0.000082
14.200189 -0.000054
14.204189 0.000051
14.208189 0.000269
14.212189 0.000582
14.216190 0.000879
14.220190 0.001000
14.224190 0.000872
14.228190 0.000578
14.232190 0.000269
14.236190 0.000038
14.240190 -0.000108
14.244190 -0.000195
14.248190 -0.000236
14.252190 -0.000232
14.256190 -0.000190
14.260190 -0.000126
14.264190 -0.000062
14.268190 -0.000011
14.272190 0.000024
14.276190 0.000047
14.280190 0.000064
14.284190 0.000078
14.288191 0.000092
14.292191 0.000107
14.296191 0.000123
14.300191 0.000140
14.304191 0.000158
14.308191 0.000176
14.312191 0.000195
14.316191 0.000213
14.320191 0.000231
14.324191 0.000247
14.328191 0.000262
14.332191 0.000276
14.336191 0.000287
14.340191 0.000295
14.344191 0.000301
14.348191 0.000304
14.352191 0.000304
14.356191 0.000301
14.360191 0.000295
14.364192 0.000286
14.368192 0.000275
14.372192 0.000261
14.376192 0.000246
14.380192 0.000229
14.384192 0.000211
14.388192 0.000193
14.392192 0.000175
14.396192 0.000156
14.400192 0.000139
14.404192 0.000122
14.408192 0.000106
14.412192 0.000091
14.416192 0.000077
14.420192 0.000065
14.424192 0.000055
14.428192 0.000045
14.432192 0.000037
14.436192 0.000030
14.440193 0.000024
14.444193 0.000019
14.448193 0.000015
14.452193 0.000012
14.456193 0.000009
14.460193 0.000007
14.464193 0.000005
14.468193 0.000004
14.472193 0.000003
14.476193 0.000002
14.480193 0.000002
14.484193 0.000001
14.488193 0.000001
14.492193 0.000001
14.496193 0.000000
14.500193 0.000000
14.504193 0.000000
14.508193 0.000000
14.512193 0.000000
14.516194 0.000000
14.520194 0.000000
14.524194 0.000000
14.528194 0.000000
14.532194 0.000000
14.536194 0.000000
14.540194 0.000000
14.544194 0.000000
14.548194 0.000000
14.552194 0.000000
14.556194 0.000000
14.560194 0.000000
14.564194 0.000000
14.568194 0.000000
14.572194 0.000000
14.576194 0.000000
14.580194 0.000000
14.584194 0.000000
14.588195 0.000000
14.592195 0.000000
14.596195 0.000000
14.600195 0.000000
14.604195 0.000000
14.608195 0.000000
14.612195 0.000000
14.616195 0.000000
14.620195 0.000000
14.624195 0.000000
14.628195 0.000000
14.632195 0.000000
14.636195 0.000000
14.640195 0.000000
14.644195 0.000000
14.648195 0.000000
14.652195 0.000000
14.656195 0.000000
14.660195 0.000000
14.664196 0.000000
14.668196 0.000000
14.672196 0.000000
14.676196 0.000000
14.680196 0.000000
14.684196 0.000000
14.688196 0.000000
14.692196 0.000000
14.696196 0.000000
14.700196 0.000000
14.704196 0.000000
14.708196 0.000000
14.712196 0.000000
14.716196 0.000000
14.720196 0.000000
14.724196 0.000000
14.728196 0.000000
14.732196 0.000000
14.736196 0.000000
14.740197 0.000000
14.744197 0.000000
14.748197 0.000000
14.752197 0.000000
14.756197 0.000000
14.760197 0.000000
14.764197 0.000000
14.768197 0.000000
14.772197 0.000000
14.776197 0.000000
14.780197 0.000000
14.784197 0.000000
14.788197 0.000000
14.792197 0.000000
14.796197 0.000000
14.800197 0.000000
14.804197 0.000000
14.808197 0.000000
14.812197 0.000000
14.816198 0.000000
14.820198 0.000000
14.824198 0.000000
14.828198 0.000000
14.832198 0.000000
14.836198 0.000000
14.840198 0.000000
14.844198 0.000000
14.848198 0.000000
14.852198 0.000000
14.856198 0.000000
14.860198 0.000000
14.864198 0.000000
14.868198 0.000000
14.872198 0.000000
14.876198 0.000000
14.880198 0.000000
14.884198 0.000000
14.888199 0.000000
14.892199 0.000000
14.896199 0.000000
14.900199 0.000000
14.904199 0.000000
14.908199 0.000000
14.912199 0.000000
14.916199 0.000000
14.920199 0.000000
14.924199 0.000000
14.928199 0.000000
14.932199 0.000000
14.936199 0.000000
14.940199 0.000000
14.944199 0.000000
14.948199 0.000000
14.952199 0.000000
14.956199 0.000000
14.960199 0.000000
14.964200 0.000000
14.968200 0.000000
14.972200 0.000000
14.976200 0.000000
14.980200 0.000000
14.984200 0.000000
14.988200 0.000000
14.992200 0.000000
14.996200 0.000000
15.000200 0.000000
15.004200 0.000000
15.008200 0.000000
15.012200 0.000000
15.016200 0.000001
15.020200 0.000001
15.024200 0.000002
15.028200 0.000002
15.032200 0.000004
15.036200 0.000006
15.040201 0.000009
15.044201 0.000013
15.048201 0.000018
15.052201 0.000024
15.056201 0.000033
15.060201 0.000043
15.064201 0.000055
15.068201 0.000068
15.072201 0.000082
15.076201 0.000097
15.080201 0.000111
15.084201 0.000125
15.088201 0.000136
15.092201 0.000145
15.096201 0.000150
15.100201 0.000152
15.104201 0.000150
15.108201 0.000144
15.112201 0.000135
15.116202 0.000123
15.120202 0.000110
15.124202 0.000095
15.128202 0.000081
15.132202 0.000066
15.136202 0.000053
15.140202 0.000042
15.144202 0.000032
15.148202 0.000024
15.152202 0.000017
15.156202 0.000012
15.160202 0.000008
15.164202 0.000005
15.168202 0.000003
15.172202 0.000000
15.176202 -0.000004
15.180202 -0.000013
15.184202 -0.000029
15.188203 -0.000050
15.192203 -0.000072
15.196203 -0.000082
15.200203 -0.000054
15.204203 0.000052
15.208203 0.000270
15.212203 0.000584
15.216203 0.000880
15.220203 0.001000
15.224203 0.000872
15.228203 0.000577
15.232203 0.000268
15.236203 0.000038
15.240203 -0.000108
15.244203 -0.000195
15.248203 -0.000236
15.252203 -0.000232
15.256203 -0.000190
15.260203 -0.000126
15.264204 -0.000062
15.268204 -0.000011
15.272204 0.000024
15.276204 0.000047
15.280204 0.000064
15.284204 0.000078
15.288204 0.000092
15.292204 0.000107
15.296204 0.000123
15.300204 0.000140
15.304204 0.000158
15.308204 0.000176
15.312204 0.000195
15.316204 0.000213
15.320204 0.000231
15.324204 0.000247
15.328204 0.000262
15.332204 0.000276
15.336204 0.000287
15.340205 0.000295
15.344205 0.000301
15.348205 0.000304
15.352205 0.000304
15.356205 0.000301
15.360205 0.000295
15.364205 0.000286
15.368205 0.000275
15.372205 0.000261
15.376205 0.000246
15.380205 0.000229
15.384205 0.000211
15.388205 0.000193
15.392205 0.000174
15.396205 0.000156
15.400205 0.000139
15.404205 0.000122
15.408205 0.000106
15.412205 0.000091
15.416206 0.000077
15.420206 0.000065
15.424206 0.000054
15.428206 0.000045
15.432206 0.000037
15.436206 0.000030
15.440206 0.000024
15.444206 0.000019
15.448206 0.000015
15.452206 0.000012
15.456206 0.000009
15.460206 0.000007
15.464206 0.000005
15.468206 0.000004
15.472206 0.000003
15.476206 0.000002
15.480206 0.000002
15.484206 0.000001
15.488207 0.000001
15.492207 0.000001
15.496207 0.000000
15.500207 0.000000
15.504207 0.000000
15.508207 0.000000
15.512207 0.000000
15.516207 0.000000
15.520207 0.000000
15.524207 0.000000
15.528207 0.000000
15.532207 0.000000
15.536207 0.000000
15.540207 0.000000
15.544207 0.000000
15.548207 0.000000
15.552207 0.000000
15.556207 0.000000
15.560207 0.000000
15.564208 0.000000
15.568208 0.000000
15.572208 0.000000
15.576208 0.000000
15.580208 0.000000
15.584208 0.000000
15.588208 0.000000
15.592208 0.000000
15.596208 0.000000
15.600208 0.000000
15.604208 0.000000
15.608208 0.000000
15.612208 0.000000
15.616208 0.000000
15.620208 0.000000
15.624208 0.000000
15.628208 0.000000
15.632208 0.000000
15.636208 0.000000
15.640209 0.000000
15.644209 0.000000
15.648209 0.000000
15.652209 0.000000
15.656209 0.000000
15.660209 0.000000
15.664209 0.000000
15.668209 0.000000
15.672209 0.000000
15.676209 0.000000
15.680209 0.000000
15.684209 0.000000
15.688209 0.000000
15.692209 0.000000
15.696209 0.000000
15.700209 0.000000
15.704209 0.000000
15.708209 0.000000
15.712209 0.000000
15.716210 0.000000
15.720210 0.000000
15.724210 0.000000
15.728210 0.000000
15.732210 0.000000
15.736210 0.000000
15.740210 0.000000
15.744210 0.000000
15.748210 0.000000
15.752210 0.000000
15.756210 0.000000
15.760210 0.000000
15.764210 0.000000
15.768210 0.000000
15.772210 0.000000
15.776210 0.000000
15.780210 0.000000
15.784210 0.000000
15.788211 0.000000
15.792211 0.000000
15.796211 0.000000
15.800211 0.000000
15.804211 0.000000
15.808211 0.000000
15.812211 0.000000
15.816211 0.000000
15.820211 0.000000
15.824211 0.000000
15.828211 0.000000
15.832211 0.000000
15.836211 0.000000
15.840211 0.000000
15.844211 0.000000
15.848211 0.000000
15.852211 0.000000
15.856211 0.000000
15.860211 0.000000
15.864212 0.000000
15.868212 0.000000
15.872212 0.000000
15.876212 0.000000
15.880212 0.000000
15.884212 0.000000
15.888212 0.000000
15.892212 0.000000
15.896212 0.000000
15.900212 0.000000
15.904212 0.000000
15.908212 0.000000
15.912212 0.000000
15.916212 0.000000
15.920212 0.000000
15.924212 0.000000
15.928212 0.000000
15.932212 0.000000
15.936212 0.000000
15.940213 0.000000
15.944213 0.000000
15.948213 0.000000
15.952213 0.000000
15.956213 0.000000
15.960213 0.000000
15.964213 0.000000
15.968213 0.000000
15.972213 0.000000
15.976213 0.000000
15.980213 0.000000
15.984213 0.000000
15.988213 0.000000
15.992213 0.000000
15.996213 0.000000
16.000213 0.000000
16.004213 0.000000
16.008213 0.000000
16.012213 0.000000
16.016214 0.000001
16.020214 0.000001
16.024214 0.000002
16.028214 0.000002
16.032214 0.000004
16.036214 0.000006
16.040214 0.000009
16.044214 0.000013
16.048214 0.000018
16.052214 0.000024
16.056214 0.000033
16.060214 0.000043
16.064214 0.000055
16.068214 0.000068
16.072214 0.000082
16.076214 0.000097
16.080214 0.000111
16.084214 0.000125
16.088215 0.000136
16.092215 0.000145
16.096215 0.000150
16.100215 0.000152
16.104215 0.000150
16.108215 0.000144
16.112215 0.000135
16.116215 0.000123
16.120215 0.000110
16.124215 0.000095
16.128215 0.000081
16.132215 0.000066
16.136215 0.000053
16.140215 0.000042
16.144215 0.000032
16.148215 0.000024
16.152215 0.000017
16.156215 0.000012
16.160215 0.000008
16.164216 0.000005
16.168216 0.000003
16.172216 0.000000
16.176216 -0.000005
16.180216 -0.000013
16.184216 -0.000029
16.188216 -0.000050
16.192216 -0.000072
16.196216 -0.000082
16.200216 -0.000053
16.204216 0.000052
16.208216 0.000271
16.212216 0.000585
16.216216 0.000881
16.220216 0.001000
16.224216 0.000871
16.228216 0.000576
16.232216 0.000267
16.236216 0.000037
16.240217 -0.000109
16.244217 -0.000195
16.248217 -0.000236
16.252217 -0.000232
16.256217 -0.000190
16.260217 -0.000126
16.264217 -0.000062
16.268217 -0.000011
16.272217 0.000024
16.276217 0.000047
16.280217 0.000064
16.284217 0.000078
16.288217 0.000092
16.292217 0.000107
16.296217 0.000123
16.300217 0.000140
16.304217 0.000158
16.308217 0.000176
16.312217 0.000195
16.316218 0.000213
16.320218 0.000231
16.324218 0.000247
16.328218 0.000263
16.332218 0.000276
16.336218 0.000287
16.340218 0.000295
16.344218 0.000301
16.348218 0.000304
16.352218 0.000304
16.356218 0.000301
16.360218 0.000295
16.364218 0.000286
16.368218 0.000274
16.372218 0.000261
16.376218 0.000246
16.380218 0.000229
16.384218 0.000211
16.388219 0.000193
16.392219 0.000174
16.396219 0.000156
16.400219 0.000138
16.404219 0.000121
16.408219 0.000106
16.412219 0.000091
16.416219 0.000077
16.420219 0.000065
16.424219 0.000054
16.428219 0.000045
16.432219 0.000037
16.436219 0.000030
16.440219 0.000024
16.444219 0.000019
16.448219 0.000015
16.452219 0.000012
16.456219 0.000009
16.460219 0.000007
16.464220 0.000005
16.468220 0.000004
16.472220 0.000003
16.476220 0.000002
16.480220 0.000002
16.484220 0.000001
16.488220 0.000001
16.492220 0.000001
16.496220 0.000000
16.500220 0.000000
16.504220 0.000000
16.508220 0.000000
16.512220 0.000000
16.516220 0.000000
16.520220 0.000000
16.524220 0.000000
16.528220 0.000000
16.532220 0.000000
16.536220 0.000000
16.540221 0.000000
16.544221 0.000000
16.548221 0.000000
16.552221 0.000000
16.556221 0.000000
16.560221 0.000000
16.564221 0.000000
16.568221 0.000000
16.572221 0.000000
16.576221 0.000000
16.580221 0.000000
16.584221 0.000000
16.588221 0.000000
16.592221 0.000000
16.596221 0.000000
16.600221 0.000000
16.604221 0.000000
16.608221 0.000000
16.612221 0.000000
16.616222 0.000000
16.620222 0.000000
16.624222 0.000000
16.628222 0.000000
16.632222 0.000000
16.636222 0.000000
16.640222 0.000000
16.644222 0.000000
16.648222 0.000000
16.652222 0.000000
16.656222 0.000000
16.660222 0.000000
16.664222 0.000000
16.668222 0.000000
16.672222 0.000000
16.676222 0.000000
16.680222 0.000000
16.684222 0.000000
16.688223 0.000000
16.692223 0.000000
16.696223 0.000000
16.700223 0.000000
16.704223 0.000000
16.708223 0.000000
16.712223 0.000000
16.716223 0.000000
16.720223 0.000000
16.724223 0.000000
16.728223 0.000000
16.732223 0.000000
16.736223 0.000000
16.740223 0.000000
16.744223 0.000000
16.748223 0.000000
16.752223 0.000000
16.756223 0.000000
16.760223 0.000000
16.764224 0.000000
16.768224 0.000000
16.772224 0.000000
16.776224 0.000000
16.780224 0.000000
16.784224 0.000000
16.788224 0.000000
16.792224 0.000000
16.796224 0.000000
16.800224 0.000000
16.804224 0.000000
16.808224 0.000000
16.812224 0.000000
16.816224 0.000000
16.820224 0.000000
16.824224 0.000000
16.828224 0.000000
16.832224 0.000000
16.836224 0.000000
16.840225 0.000000
16.844225 0.000000
16.848225 0.000000
16.852225 0.000000
16.856225 0.000000
16.860225 0.000000
16.864225 0.000000
16.868225 0.000000
16.872225 0.000000
16.876225 0.000000
16.880225 0.000000
16.884225 0.000000
16.888225 0.000000
16.892225 0.000000
16.896225 0.000000
16.900225 0.000000
16.904225 0.000000
16.908225 0.000000
16.912225 0.000000
16.916226 0.000000
16.920226 0.000000
16.924226 0.000000
16.928226 0.000000
16.932226 0.000000
16.936226 0.000000
16.940226 0.000000
16.944226 0.000000
16.948226 0.000000
16.952226 0.000000
16.956226 0.000000
16.960226 0.000000
16.964226 0.000000
16.968226 0.000000
16.972226 0.000000
16.976226 0.000000
16.980226 0.000000
16.984226 0.000000
16.988227 0.000000
16.992227 0.000000
16.996227 0.000000
17.000227 0.000000
17.004227 0.000000
17.008227 0.000000
17.012227 0.000000
17.016227 0.000001
17.020227 0.000001
17.024227 0.000002
17.028227 0.000002
17.032227 0.000004
17.036227 0.000006
17.040227 0.000009
17.044227 0.000013
17.048227 0.000018
17.052227 0.000025
17.056227 0.000033
17.060227 0.000043
17.064228 0.000055
17.068228 0.000068
17.072228 0.000082
17.076228 0.000097
17.080228 0.000111
17.084228 0.000125
17.088228 0.000136
17.092228 0.000145
17.096228 0.000151
17.100228 0.000152
17.104228 0.000150
17.108228 0.000144
17.112228 0.000135
17.116228 0.000123
17.120228 0.000110
17.124228 0.000095
17.128228 0.000080
17.132228 0.000066
17.136228 0.000053
17.140229 0.000042
17.144229 0.000032
17.148229 0.000024
17.152229 0.000017
17.156229 0.000012
17.160229 0.000008
17.164229 0.000005
17.168229 0.000003
17.172229 0.000000
17.176229 -0.000005
17.180229 -0.000013
17.184229 -0.000029
17.188229 -0.000050
17.192229 -0.000072
17.196229 -0.000082
17.200229 -0.000053
17.204229 0.000053
17.208229 0.000272
17.212229 0.000586
17.216230 0.000881
17.220230 0.001000
17.224230 0.000870
17.228230 0.000575
17.232230 0.000267
17.236230 0.000037
17.240230 -0.000109
17.244230 -0.000195
17.248230 -0.000236
17.252230 -0.000232
17.256230 -0.000189
17.260230 -0.000126
17.264230 -0.000062
17.268230 -0.000010
17.272230 0.000025
17.276230 0.000047
17.280230 0.000064
17.284230 0.000078
17.288231 0.000092
17.292231 0.000107
17.296231 0.000123
17.300231 0.000140
17.304231 0.000158
17.308231 0.000177
17.312231 0.000195
17.316231 0.000213
17.320231 0.000231
17.324231 0.000247
17.328231 0.000263
17.332231 0.000276
17.336231 0.000287
17.340231 0.000296
17.344231 0.000301
17.348231 0.000304
17.352231 0.000304
17.356231 0.000301
17.360231 0.000295
17.364232 0.000286
17.368232 0.000274
17.372232 0.000261
17.376232 0.000246
17.380232 0.000229
17.384232 0.000211
17.388232 0.000193
17.392232 0.000174
17.396232 0.000156
17.400232 0.000138
17.404232 0.000121
17.408232 0.000106
17.412232 0.000091
17.416232 0.000077
17.420232 0.000065
17.424232 0.000054
17.428232 0.000045
17.432232 0.000037
17.436232 0.000030
17.440233 0.000024
17.444233 0.000019
17.448233 0.000015
17.452233 0.000012
17.456233 0.000009
17.460233 0.000007
17.464233 0.000005
17.468233 0.000004
17.472233 0.000003
17.476233 0.000002
17.480233 0.000002
17.484233 0.000001
17.488233 0.000001
17.492233 0.000001
17.496233 0.000000
17.500233 0.000000
17.504233 0.000000
17.508233 0.000000
17.512233 0.000000
17.516234 0.000000
17.520234 0.000000
17.524234 0.000000
17.528234 0.000000
17.532234 0.000000
17.536234 0.000000
17.540234 0.000000
17.544234 0.000000
17.548234 0.000000
17.552234 0.000000
17.556234 0.000000
17.560234 0.000000
17.564234 0.000000
17.568234 0.000000
17.572234 0.000000
17.576234 0.000000
17.580234 0.000000
17.584234 0.000000
17.588235 0.000000
17.592235 0.000000
17.596235 0.000000
17.600235 0.000000
17.604235 0.000000
17.608235 0.000000
17.612235 0.000000
17.616235 0.000000
17.620235 0.000000
17.624235 0.000000
17.628235 0.000000
17.632235 0.000000
17.636235 0.000000
17.640235 0.000000
17.644235 0.000000
17.648235 0.000000
17.652235 0.000000
17.656235 0.000000
17.660235 0.000000
17.664236 0.000000
17.668236 0.000000
17.672236 0.000000
17.676236 0.000000
17.680236 0.000000
17.684236 0.000000
17.688236 0.000000
17.692236 0.000000
17.696236 0.000000
17.700236 0.000000
17.704236 0.000000
17.708236 0.000000
17.712236 0.000000
17.716236 0.000000
17.720236 0.000000
17.724236 0.000000
17.728236 0.000000
17.732236 0.000000
17.736236 0.000000
17.740237 0.000000
17.744237 0.000000
17.748237 0.000000
17.752237 0.000000
17.756237 0.000000
17.760237 0.000000
17.764237 0.000000
17.768237 0.000000
17.772237 0.000000
17.776237 0.000000
17.780237 0.000000
17.784237 0.000000
17.788237 0.000000
17.792237 0.000000
17.796237 0.000000
17.800237 0.000000
17.804237 0.000000
17.808237 0.000000
17.812237 0.000000
17.816238 0.000000
17.820238 0.000000
17.824238 0.000000
17.828238 0.000000
17.832238 0.000000
17.836238 0.000000
17.840238 0.000000
17.844238 0.000000
17.848238 0.000000
17.852238 0.000000
17.856238 0.000000
17.860238 0.000000
17.864238 0.000000
17.868238 0.000000
17.872238 0.000000
17.876238 0.000000
17.880238 0.000000
17.884238 0.000000
17.888239 0.000000
17.892239 0.000000
17.896239 0.000000
17.900239 0.000000
17.904239 0.000000
17.908239 0.000000
17.912239 0.000000
17.916239 0.000000
17.920239 0.000000
17.924239 0.000000
17.928239 0.000000
17.932239 0.000000
17.936239 0.000000
17.940239 0.000000
17.944239 0.000000
17.948239 0.000000
17.952239 0.000000
17.956239 0.000000
17.960239 0.000000
17.964240 0.000000
17.968240 0.000000
17.972240 0.000000
17.976240 0.000000
17.980240 0.000000
17.984240 0.000000
17.988240 0.000000
17.992240 0.000000
17.996240 0.000000
18.000240 0.000000
18.004240 0.000000
18.008240 0.000000
18.012240 0.000000
18.016240 0.000001
18.020240 0.000001
18.024240 0.000002
18.028240 0.000002
18.032240 0.000004
18.036240 0.000006
18.040241 0.000009
18.044241 0.000013
18.048241 0.000018
18.052241 0.000025
18.056241 0.000033
18.060241 0.000043
18.064241 0.000055
18.068241 0.000068
18.072241 0.000082
18.076241 0.000097
18.080241 0.000111
18.084241 0.000125
18.088241 0.000136
18.092241 0.000145
18.096241 0.000151
18.100241 0.000152
18.104241 0.000150
18.108241 0.000144
18.112241 0.000135
18.116242 0.000123
18.120242 0.000110
18.124242 0.000095
18.128242 0.000080
18.132242 0.000066
18.136242 0.000053
18.140242 0.000042
18.144242 0.000032
18.148242 0.000024
18.152242 0.000017
18.156242 0.000012
18.160242 0.000008
18.164242 0.000005
18.168242 0.000003
18.172242 0.000000
18.176242 -0.000005
18.180242 -0.000013
18.184242 -0.000029
18.188243 -0.000050
18.192243 -0.000072
18.196243 -0.000082
18.200243 -0.000053
18.204243 0.000054
18.208243 0.000273
18.212243 0.000587
18.216243 0.000882
18.220243 0.001000
18.224243 0.000869
18.228243 0.000574
18.232243 0.000266
18.236243 0.000036
18.240243 -0.000109
18.244243 -0.000195
18.248243 -0.000236
18.252243 -0.000232
18.256243 -0.000189
18.260243 -0.000126
18.264244 -0.000061
18.268244 -0.000010
18.272244 0.000025
18.276244 0.000048
18.280244 0.000064
18.284244 0.000078
18.288244 0.000092
18.292244 0.000107
18.296244 0.000123
18.300244 0.000140
18.304244 0.000158
18.308244 0.000177
18.312244 0.000195
18.316244 0.000213
18.320244 0.000231
18.324244 0.000247
18.328244 0.000263
18.332244 0.000276
18.336244 0.000287
18.340245 0.000296
18.344245 0.000301
18.348245 0.000304
18.352245 0.000304
18.356245 0.000301
18.360245 0.000295
18.364245 0.000286
18.368245 0.000274
18.372245 0.000261
18.376245 0.000246
18.380245 0.000229
18.384245 0.000211
18.388245 0.000193
18.392245 0.000174
18.396245 0.000156
18.400245 0.000138
18.404245 0.000121
18.408245 0.000105
18.412245 0.000091
18.416246 0.000077
18.420246 0.000065
18.424246 0.000054
18.428246 0.000045
18.432246 0.000037
18.436246 0.000030
18.440246 0.000024
18.444246 0.000019
18.448246 0.000015
18.452246 0.000012
18.456246 0.000009
18.460246 0.000007
18.464246 0.000005
18.468246 0.000004
18.472246 0.000003
18.476246 0.000002
18.480246 0.000002
18.484246 0.000001
18.488247 0.000001
18.492247 0.000001
18.496247 0.000000
18.500247 0.000000
18.504247 0.000000
18.508247 0.000000
18.512247 0.000000
18.516247 0.000000
18.520247 0.000000
18.524247 0.000000
18.528247 0.000000
18.532247 0.000000
18.536247 0.000000
18.540247 0.000000
18.544247 0.000000
18.548247 0.000000
18.552247 0.000000
18.556247 0.000000
18.560247 0.000000
18.564248 0.000000
18.568248 0.000000
18.572248 0.000000
18.576248 0.000000
18.580248 0.000000
18.584248 0.000000
18.588248 0.000000
18.592248 0.000000
18.596248 0.000000
18.600248 0.000000
18.604248 0.000000
18.608248 0.000000
18.612248 0.000000
18.616248 0.000000
18.620248 0.000000
18.624248 0.000000
18.628248 0.000000
18.632248 0.000000
18.636248 0.000000
18.640249 0.000000
18.644249 0.000000
18.648249 0.000000
18.652249 0.000000
18.656249 0.000000
18.660249 0.000000
18.664249 0.000000
18.668249 0.000000
18.672249 0.000000
18.676249 0.000000
18.680249 0.000000
18.684249 0.000000
18.688249 0.000000
18.692249 0.000000
18.696249 0.000000
18.700249 0.000000
18.704249 0.000000
18.708249 0.000000
18.712249 0.000000
18.716250 0.000000
18.720250 0.000000
18.724250 0.000000
18.728250 0.000000
18.732250 0.000000
18.736250 0.000000
18.740250 0.000000
18.744250 0.000000
18.748250 0.000000
18.752250 0.000000
18.756250 0.000000
18.760250 0.000000
18.764250 0.000000
18.768250 0.000000
18.772250 0.000000
18.776250 0.000000
18.780250 0.000000
18.784250 0.000000
18.788251 0.000000
18.792251 0.000000
18.796251 0.000000
18.800251 0.000000
18.804251 0.000000
18.808251 0.000000
18.812251 0.000000
18.816251 0.000000
18.820251 0.000000
18.824251 0.000000
18.828251 0.000000
18.832251 0.000000
18.836251 0.000000
18.840251 0.000000
18.844251 0.000000
18.848251 0.000000
18.852251 0.000000
18.856251 0.000000
18.860251 0.000000
18.864252 0.000000
18.868252 0.000000
18.872252 0.000000
18.876252 0.000000
18.880252 0.000000
18.884252 0.000000
18.888252 0.000000
18.892252 0.000000
18.896252 0.000000
18.900252 0.000000
18.904252 0.000000
18.908252 0.000000
18.912252 0.000000
18.916252 0.000000
18.920252 0.000000
18.924252 0.000000
18.928252 0.000000
18.932252 0.000000
18.936252 0.000000
18.940253 0.000000
18.944253 0.000000
18.948253 0.000000
18.952253 0.000000
18.956253 0.000000
18.960253 0.000000
18.964253 0.000000
18.968253 0.000000
18.972253 0.000000
18.976253 0.000000
18.980253 0.000000
18.984253 0.000000
18.988253 0.000000
18.992253 0.000000
18.996253 0.000000
19.000253 0.000000
19.004253 0.000000
19.008253 0.000000
19.012253 0.000000
19.016254 0.000001
19.020254 0.000001
19.024254 0.000002
19.028254 0.000002
19.032254 0.000004
19.036254 0.000006
19.040254 0.000009
19.044254 0.000013
19.048254 0.000018
19.052254 0.000025
19.056254 0.000033
19.060254 0.000043
19.064254 0.000055
19.068254 0.000068
19.072254 0.000082
19.076254 0.000097
19.080254 0.000111
19.084254 0.000125
19.088255 0.000136
19.092255 0.000145
19.096255 0.000151
19.100255 0.000152
19.104255 0.000150
19.108255 0.000144
19.112255 0.000135
19.116255 0.000123
19.120255 0.000110
19.124255 0.000095
19.128255 0.000080
19.132255 0.000066
19.136255 0.000053
19.140255 0.000042
19.144255 0.000032
19.148255 0.000024
19.152255 0.000017
19.156255 0.000012
19.160255 0.000008
19.164256 0.000005
19.168256 0.000003
19.172256 0.000000
19.176256 -0.000005
19.180256 -0.000014
19.184256 -0.000029
19.188256 -0.000050
19.192256 -0.000072
19.196256 -0.000082
19.200256 -0.000053
19.204256 0.000054
19.208256 0.000274
19.212256 0.000588
19.216256 0.000883
19.220256 0.001000
19.224256 0.000869
19.228256 0.000573
19.232256 0.000265
19.236256 0.000035
19.240257 -0.000110
19.244257 -0.000196
19.248257 -0.000236
19.252257 -0.000232
19.256257 -0.000189
19.260257 -0.000125
19.264257 -0.000061
19.268257 -0.000010
19.272257 0.000025
19.276257 0.000048
19.280257 0.000064
19.284257 0.000078
19.288257 0.000092
19.292257 0.000107
19.296257 0.000123
19.300257 0.000141
19.304257 0.000158
19.308257 0.000177
19.312257 0.000195
19.316258 0.000213
19.320258 0.000231
19.324258 0.000248
19.328258 0.000263
19.332258 0.000276
19.336258 0.000287
19.340258 0.000296
19.344258 0.000301
19.348258 0.000304
19.352258 0.000304
19.356258 0.000301
19.360258 0.000295
19.364258 0.000286
19.368258 0.000274
19.372258 0.000261
19.376258 0.000245
19.380258 0.000229
19.384258 0.000211
19.388259 0.000193
19.392259 0.000174
19.396259 0.000156
19.400259 0.000138
19.404259 0.000121
19.408259 0.000105
19.412259 0.000091
19.416259 0.000077
19.420259 0.000065
19.424259 0.000054
19.428259 0.000045
19.432259 0.000037
19.436259 0.000030
19.440259 0.000024
19.444259 0.000019
19.448259 0.000015
19.452259 0.000012
19.456259 0.000009
19.460259 0.000007
19.464260 0.000005
19.468260 0.000004
19.472260 0.000003
19.476260 0.000002
19.480260 0.000002
19.484260 0.000001
19.488260 0.000001
19.492260 0.000001
19.496260 0.000000
19.500260 0.000000
19.504260 0.000000
19.508260 0.000000
19.512260 0.000000
19.516260 0.000000
19.520260 0.000000
19.524260 0.000000
19.528260 0.000000
19.532260 0.000000
19.536260 0.000000
19.540261 0.000000
19.544261 0.000000
19.548261 0.000000
19.552261 0.000000
19.556261 0.000000
19.560261 0.000000
19.564261 0.000000
19.568261 0.000000
19.572261 0.000000
19.576261 0.000000
19.580261 0.000000
19.584261 0.000000
19.588261 0.000000
19.592261 0.000000
19.596261 0.000000
19.600261 0.000000
19.604261 0.000000
19.608261 0.000000
19.612261 0.000000
19.616262 0.000000
19.620262 0.000000
19.624262 0.000000
19.628262 0.000000
19.632262 0.000000
19.636262 0.000000
19.640262 0.000000
19.644262 0.000000
19.648262 0.000000
19.652262 0.000000
19.656262 0.000000
19.660262 0.000000
19.664262 0.000000
19.668262 0.000000
19.672262 0.000000
19.676262 0.000000
19.680262 0.000000
19.684262 0.000000
19.688263 0.000000
19.692263 0.000000
19.696263 0.000000
19.700263 0.000000
19.704263 0.000000
19.708263 0.000000
19.712263 0.000000
19.716263 0.000000
19.720263 0.000000
19.724263 0.000000
19.728263 0.000000
19.732263 0.000000
19.736263 0.000000
19.740263 0.000000
19.744263 0.000000
19.748263 0.000000
19.752263 0.000000
19.756263 0.000000
19.760263 0.000000
19.764264 0.000000
19.768264 0.000000
19.772264 0.000000
19.776264 0.000000
19.780264 0.000000
19.784264 0.000000
19.788264 0.000000
19.792264 0.000000
19.796264 0.000000
19.800264 0.000000
19.804264 0.000000
19.808264 0.000000
19.812264 0.000000
19.816264 0.000000
19.820264 0.000000
19.824264 0.000000
19.828264 0.000000
19.832264 0.000000
19.836264 0.000000
19.840265 0.000000
19.844265 0.000000
19.848265 0.000000
19.852265 0.000000
19.856265 0.000000
19.860265 0.000000
19.864265 0.000000
19.868265 0.000000
19.872265 0.000000
19.876265 0.000000
19.880265 0.000000
19.884265 0.000000
19.888265 0.000000
19.892265 0.000000
19.896265 0.000000
19.900265 0.000000
19.904265 0.000000
19.908265 0.000000
19.912265 0.000000
19.916266 0.000000
19.920266 0.000000
19.924266 0.000000
19.928266 0.000000
19.932266 0.000000
19.936266 0.000000
19.940266 0.000000
19.944266 0.000000
19.948266 0.000000
19.952266 0.000000
19.956266 0.000000
19.960266 0.000000
19.964266 0.000000
19.968266 0.000000
19.972266 0.000000
19.976266 0.000000
19.980266 0.000000
19.984266 0.000000
19.988267 0.000000
19.992267 0.000000
19.996267 0.000000
20.000267 0.000000
20.004267 0.000000
20.008267 0.000000
20.012267 0.000000
20.016267 0.000001
20.020267 0.000001
20.024267 0.000002
20.028267 0.000002
20.032267 0.000004
20.036267 0.000006
20.040267 0.000009
20.044267 0.000013
20.048267 0.000018
20.052267 0.000025
20.056267 0.000033
20.060267 0.000043
20.064268 0.000055
20.068268 0.000068
20.072268 0.000082
20.076268 0.000097
20.080268 0.000111
20.084268 0.000125
20.088268 0.000136
20.092268 0.000145
20.096268 0.000151
20.100268 0.000152
20.104268 0.000150
20.108268 0.000144
20.112268 0.000135
20.116268 0.000123
20.120268 0.000110
20.124268 0.000095
20.128268 0.000080
20.132268 0.000066
20.136268 0.000053
20.140269 0.000042
20.144269 0.000032
20.148269 0.000024
20.152269 0.000017
20.156269 0.000012
20.160269 0.000008
20.164269 0.000005
20.168269 0.000003
20.172269 0.000000
20.176269 -0.000005
20.180269 -0.000014
20.184269 -0.000029
20.188269 -0.000050
20.192269 -0.000072
20.196269 -0.000082
20.200269 -0.000053
20.204269 0.000055
20.208269 0.000275
20.212269 0.000589
20.216270 0.000884
20.220270 0.001000
20.224270 0.000868
20.228270 0.000572
20.232270 0.000264
20.236270 0.000035
20.240270 -0.000110
20.244270 -0.000196
20.248270 -0.000236
20.252270 -0.000232
20.256270 -0.000189
20.260270 -0.000125
20.264270 -0.000061
20.268270 -0.000010
20.272270 0.000025
20.276270 0.000048
20.280270 0.000064
20.284270 0.000078
20.288271 0.000092
20.292271 0.000107
20.296271 0.000124
20.300271 0.000141
20.304271 0.000158
20.308271 0.000177
20.312271 0.000195
20.316271 0.000213
20.320271 0.000231
20.324271 0.000248
20.328271 0.000263
20.332271 0.000276
20.336271 0.000287
20.340271 0.000296
20.344271 0.000301
20.348271 0.000304
20.352271 0.000304
20.356271 0.000301
20.360271 0.000295
20.364272 0.000286
20.368272 0.000274
20.372272 0.000261
20.376272 0.000245
20.380272 0.000229
20.384272 0.000211
20.388272 0.000193
20.392272 0.000174
20.396272 0.000156
20.400272 0.000138
20.404272 0.000121
20.408272 0.000105
20.412272 0.000091
20.416272 0.000077
20.420272 0.000065
20.424272 0.000054
20.428272 0.000045
20.432272 0.000037
20.436272 0.000030
20.440273 0.000024
20.444273 0.000019
20.448273 0.000015
20.452273 0.000012
20.456273 0.000009
20.460273 0.000007
20.464273 0.000005
20.468273 0.000004
20.472273 0.000003
20.476273 0.000002
20.480273 0.000002
20.484273 0.000001
20.488273 0.000001
20.492273 0.000001
20.496273 0.000000
20.500273 0.000000
20.504273 0.000000
20.508273 0.000000
20.512273 0.000000
20.516274 0.000000
20.520274 0.000000
20.524274 0.000000
20.528274 0.000000
20.532274 0.000000
20.536274 0.000000
20.540274 0.000000
20.544274 0.000000
20.548274 0.000000
20.552274 0.000000
20.556274 0.000000
20.560274 0.000000
20.564274 0.000000
20.568274 0.000000
20.572274 0.000000
20.576274 0.000000
20.580274 0.000000
20.584274 0.000000
20.588275 0.000000
20.592275 0.000000
20.596275 0.000000
20.600275 0.000000
20.604275 0.000000
20.608275 0.000000
20.612275 0.000000
20.616275 0.000000
20.620275 0.000000
20.624275 0.000000
20.628275 0.000000
20.632275 0.000000
20.636275 0.000000
20.640275 0.000000
20.644275 0.000000
20.648275 0.000000
20.652275 0.000000
20.656275 0.000000
20.660275 0.000000
20.664276 0.000000
20.668276 0.000000
20.672276 0.000000
20.676276 0.000000
20.680276 0.000000
20.684276 0.000000
20.688276 0.000000
20.692276 0.000000
20.696276 0.000000
20.700276 0.000000
20.704276 0.000000
20.708276 0.000000
20.712276 0.000000
20.716276 0.000000
20.720276 0.000000
20.724276 0.000000
20.728276 0.000000
20.732276 0.000000
20.736276 0.000000
20.740277 0.000000
20.744277 0.000000
20.748277 0.000000
20.752277 0.000000
20.756277 0.000000
20.760277 0.000000
20.764277 0.000000
20.768277 0.000000
20.772277 0.000000
20.776277 0.000000
20.780277 0.000000
20.784277 0.000000
20.788277 0.000000
20.792277 0.000000
20.796277 0.000000
20.800277 0.000000
20.804277 0.000000
20.808277 0.000000
20.812277 0.000000
20.816278 0.000000
20.820278 0.000000
20.824278 0.000000
20.828278 0.000000
20.832278 0.000000
20.836278 0.000000
20.840278 0.000000
20.844278 0.000000
20.848278 0.000000
20.852278 0.000000
20.856278 0.000000
20.860278 0.000000
20.864278 0.000000
20.868278 0.000000
20.872278 0.000000
20.876278 0.000000
20.880278 0.000000
20.884278 0.000000
20.888279 0.000000
20.892279 0.000000
20.896279 0.000000
20.900279 0.000000
20.904279 0.000000
20.908279 0.000000
20.912279 0.000000
20.916279 0.000000
20.920279 0.000000
20.924279 0.000000
20.928279 0.000000
20.932279 0.000000
20.936279 0.000000
20.940279 0.000000
20.944279 0.000000
20.948279 0.000000
20.952279 0.000000
20.956279 0.000000
20.960279 0.000000
20.964280 0.000000
20.968280 0.000000
20.972280 0.000000
20.976280 0.000000
20.980280 0.000000
20.984280 0.000000
20.988280 0.000000
20.992280 0.000000
20.996280 0.000000
21.000280 0.000000
21.004280 0.000000
21.008280 0.000000
21.012280 0.000000
21.016280 0.000001
21.020280 0.000001
21.024280 0.000002
21.028280 0.000002
21.032280 0.000004
21.036280 0.000006
21.040281 0.000009
21.044281 0.000013
21.048281 0.000018
21.052281 0.000025
21.056281 0.000033
21.060281 0.000043
21.064281 0.000055
21.068281 0.000068
21.072281 0.000082
21.076281 0.000097
21.080281 0.000112
21.084281 0.000125
21.088281 0.000136
21.092281 0.000145
21.096281 0.000151
21.100281 0.000152
21.104281 0.000150
21.108281 0.000144
21.112281 0.000135
21.116282 0.000123
21.120282 0.000110
21.124282 0.000095
21.128282 0.000080
21.132282 0.000066
21.136282 0.000053
21.140282 0.000042
21.144282 0.000032
21.148282 0.000024
21.152282 0.000017
21.156282 0.000012
21.160282 0.000008
21.164282 0.000005
21.168282 0.000003
21.172282 0.000000
21.176282 -0.000005
21.180282 -0.000014
21.184282 -0.000029
21.188283 -0.000050
21.192283 -0.000073
21.196283 -0.000082
21.200283 -0.000052
21.204283 0.000055
21.208283 0.000276
21.212283 0.000590
21.216283 0.000884
21.220283 0.001000
21.224283 0.000867
21.228283 0.000571
21.232283 0.000263
21.236283 0.000034
21.240283 -0.000110
21.244283 -0.000196
21.248283 -0.000236
21.252283 -0.000231
21.256283 -0.000189
21.260283 -0.000125
21.264284 -0.000061
21.268284 -0.000010
21.272284 0.000025
21.276284 0.000048
21.280284 0.000064
21.284284 0.000078
21.288284 0.000092
21.292284 0.000107
21.296284 0.000124
21.300284 0.000141
21.304284 0.000158
21.308284 0.000177
21.312284 0.000195
21.316284 0.000213
21.320284 0.000231
21.324284 0.000248
21.328284 0.000263
21.332284 0.000276
21.336284 0.000287
21.340285 0.000296
21.344285 0.000301
21.348285 0.000304
21.352285 0.000304
21.356285 0.000301
21.360285 0.000295
21.364285 0.000286
21.368285 0.000274
21.372285 0.000261
21.376285 0.000245
21.380285 0.000229
21.384285 0.000211
21.388285 0.000193
21.392285 0.000174
21.396285 0.000156
21.400285 0.000138
21.404285 0.000121
21.408285 0.000105
21.412285 0.000091
21.416286 0.000077
21.420286 0.000065
21.424286 0.000054
21.428286 0.000045
21.432286 0.000037
21.436286 0.000030
21.440286 0.000024
21.444286 0.000019
21.448286 0.000015
21.452286 0.000012
21.456286 0.000009
21.460286 0.000007
21.464286 0.000005
21.468286 0.000004
21.472286 0.000003
21.476286 0.000002
21.480286 0.000002
21.484286 0.000001
21.488287 0.000001
21.492287 0.000001
21.496287 0.000000
21.500287 0.000000
21.504287 0.000000
21.508287 0.000000
21.512287 0.000000
21.516287 0.000000
21.520287 0.000000
21.524287 0.000000
21.528287 0.000000
21.532287 0.000000
21.536287 0.000000
21.540287 0.000000
21.544287 0.000000
21.548287 0.000000
21.552287 0.000000
21.556287 0.000000
21.560287 0.000000
21.564288 0.000000
21.568288 0.000000
21.572288 0.000000
21.576288 0.000000
21.580288 0.000000
21.584288 0.000000
21.588288 0.000000
21.592288 0.000000
21.596288 0.000000
21.600288 0.000000
21.604288 0.000000
21.608288 0.000000
21.612288 0.000000
21.616288 0.000000
21.620288 0.000000
21.624288 0.000000
21.628288 0.000000
21.632288 0.000000
21.636288 0.000000
21.640289 0.000000
21.644289 0.000000
21.648289 0.000000
21.652289 0.000000
21.656289 0.000000
21.660289 0.000000
21.664289 0.000000
21.668289 0.000000
21.672289 0.000000
21.676289 0.000000
21.680289 0.000000
21.684289 0.000000
21.688289 0.000000
21.692289 0.000000
21.696289 0.000000
21.700289 0.000000
21.704289 0.000000
21.708289 0.000000
21.712289 0.000000
21.716290 0.000000
21.720290 0.000000
21.724290 0.000000
21.728290 0.000000
21.732290 0.000000
21.736290 0.000000
21.740290 0.000000
21.744290 0.000000
21.748290 0.000000
21.752290 0.000000
21.756290 0.000000
21.760290 0.000000
21.764290 0.000000
21.768290 0.000000
21.772290 0.000000
21.776290 0.000000
21.780290 0.000000
21.784290 0.000000
21.788291 0.000000
21.792291 0.000000
21.796291 0.000000
21.800291 0.000000
21.804291 0.000000
21.808291 0.000000
21.812291 0.000000
21.816291 0.000000
21.820291 0.000000
21.824291 0.000000
21.828291 0.000000
21.832291 0.000000
21.836291 0.000000
21.840291 0.000000
21.844291 0.000000
21.848291 0.000000
21.852291 0.000000
21.856291 0.000000
21.860291 0.000000
21.864292 0.000000
21.868292 0.000000
21.872292 0.000000
21.876292 0.000000
21.880292 0.000000
21.884292 0.000000
21.888292 0.000000
21.892292 0.000000
21.896292 0.000000
21.900292 0.000000
21.904292 0.000000
21.908292 0.000000
21.912292 0.000000
21.916292 0.000000
21.920292 0.000000
21.924292 0.000000
21.928292 0.000000
21.932292 0.000000
21.936292 0.000000
21.940293 0.000000
21.944293 0.000000
21.948293 0.000000
21.952293 0.000000
21.956293 0.000000
21.960293 0.000000
21.964293 0.000000
21.968293 0.000000
21.972293 0.000000
21.976293 0.000000
21.980293 0.000000
21.984293 0.000000
21.988293 0.000000
21.992293 0.000000
21.996293 0.000000
22.000293 0.000000
22.004293 0.000000
22.008293 0.000000
22.012293 0.000000
22.016294 0.000001
22.020294 0.000001
22.024294 0.000002
22.028294 0.000002
22.032294 0.000004
22.036294 0.000006
22.040294 0.000009
22.044294 0.000013
22.048294 0.000018
22.052294 0.000025
22.056294 0.000033
22.060294 0.000043
22.064294 0.000055
22.068294 0.000068
22.072294 0.000082
22.076294 0.000097
22.080294 0.000112
22.084294 0.000125
22.088295 0.000136
22.092295 0.000145
22.096295 0.000151
22.100295 0.000152
22.104295 0.000150
22.108295 0.000144
22.112295 0.000135
22.116295 0.000123
22.120295 0.000109
22.124295 0.000095
22.128295 0.000080
22.132295 0.000066
22.136295 0.000053
22.140295 0.000042
22.144295 0.000032
22.148295 0.000024
22.152295 0.000017
22.156295 0.000012
22.160295 0.000008
22.164296 0.000005
22.168296 0.000003
22.172296 0.000000
22.176296 -0.000005
22.180296 -0.000014
22.184296 -0.000029
22.188296 -0.000050
22.192296 -0.000073
22.196296 -0.000082
22.200296 -0.000052
22.204296 0.000056
22.208296 0.000277
22.212296 0.000591
22.216296 0.000885
22.220296 0.001000
22.224296 0.000866
22.228296 0.000570
22.232296 0.000262
22.236296 0.000033
22.240297 -0.000111
22.244297 -0.000196
22.248297 -0.000236
22.252297 -0.000231
22.256297 -0.000188
22.260297 -0.000125
22.264297 -0.000061
22.268297 -0.000010
22.272297 0.000025
22.276297 0.000048
22.280297 0.000064
22.284297 0.000078
22.288297 0.000092
22.292297 0.000108
22.296297 0.000124
22.300297 0.000141
22.304297 0.000159
22.308297 0.000177
22.312297 0.000195
22.316298 0.000213
22.320298 0.000231
22.324298 0.000248
22.328298 0.000263
22.332298 0.000276
22.336298 0.000287
22.340298 0.000296
22.344298 0.000301
22.348298 0.000304
22.352298 0.000304
22.356298 0.000301
22.360298 0.000295
22.364298 0.000286
22.368298 0.000274
22.372298 0.000261
22.376298 0.000245
22.380298 0.000229
22.384298 0.000211
22.388299 0.000193
22.392299 0.000174
22.396299 0.000156
22.400299 0.000138
22.404299 0.000121
22.408299 0.000105
22.412299 0.000091
22.416299 0.000077
22.420299 0.000065
22.424299 0.000054
22.428299 0.000045
22.432299 0.000037
22.436299 0.000030
22.440299 0.000024
22.444299 0.000019
22.448299 0.000015
22.452299 0.000012
22.456299 0.000009
22.460299 0.000007
22.464300 0.000005
22.468300 0.000004
22.472300 0.000003
22.476300 0.000002
22.480300 0.000002
22.484300 0.000001
22.488300 0.000001
22.492300 0.000001
22.496300 0.000000
22.500300 0.000000
22.504300 0.000000
22.508300 0.000000
22.512300 0.000000
22.516300 0.000000
22.520300 0.000000
22.524300 0.000000
22.528300 0.000000
22.532300 0.000000
22.536300 0.000000
22.540301 0.000000
22.544301 0.000000
22.548301 0.000000
22.552301 0.000000
22.556301 0.000000
22.560301 0.000000
22.564301 0.000000
22.568301 0.000000
22.572301 0.000000
22.576301 0.000000
22.580301 0.000000
22.584301 0.000000
22.588301 0.000000
22.592301 0.000000
22.596301 0.000000
22.600301 0.000000
22.604301 0.000000
22.608301 0.000000
22.612301 0.000000
22.616302 0.000000
22.620302 0.000000
22.624302 0.000000
22.628302 0.000000
22.632302 0.000000
22.636302 0.000000
22.640302 0.000000
22.644302 0.000000
22.648302 0.000000
22.652302 0.000000
22.656302 0.000000
22.660302 0.000000
22.664302 0.000000
22.668302 0.000000
22.672302 0.000000
22.676302 0.000000
22.680302 0.000000
22.684302 0.000000
22.688303 0.000000
22.692303 0.000000
22.696303 0.000000
22.700303 0.000000
22.704303 0.000000
22.708303 0.000000
22.712303 0.000000
22.716303 0.000000
22.720303 0.000000
22.724303 0.000000
22.728303 0.000000
22.732303 0.000000
22.736303 0.000000
22.740303 0.000000
22.744303 0.000000
22.748303 0.000000
22.752303 0.000000
22.756303 0.000000
22.760303 0.000000
22.764304 0.000000
22.768304 0.000000
22.772304 0.000000
22.776304 0.000000
22.780304 0.000000
22.784304 0.000000
22.788304 0.000000
22.792304 0.000000
22.796304 0.000000
22.800304 0.000000
22.804304 0.000000
22.808304 0.000000
22.812304 0.000000
22.816304 0.000000
22.820304 0.000000
22.824304 0.000000
22.828304 0.000000
22.832304 0.000000
22.836304 0.000000
22.840305 0.000000
22.844305 0.000000
22.848305 0.000000
22.852305 0.000000
22.856305 0.000000
22.860305 0.000000
22.864305 0.000000
22.868305 0.000000
22.872305 0.000000
22.876305 0.000000
22.880305 0.000000
22.884305 0.000000
22.888305 0.000000
22.892305 0.000000
22.896305 0.000000
22.900305 0.000000
22.904305 0.000000
22.908305 0.000000
22.912305 0.000000
22.916306 0.000000
22.920306 0.000000
22.924306 0.000000
22.928306 0.000000
22.932306 0.000000
22.936306 0.000000
22.940306 0.000000
22.944306 0.000000
22.948306 0.000000
22.952306 0.000000
22.956306 0.000000
22.960306 0.000000
22.964306 0.000000
22.968306 0.000000
22.972306 0.000000
22.976306 0.000000
22.980306 0.000000
22.984306 0.000000
22.988307 0.000000
22.992307 0.000000
22.996307 0.000000
23.000307 0.000000
23.004307 0.000000
23.008307 0.000000
23.012307 0.000000
23.016307 0.000001
23.020307 0.000001
23.024307 0.000002
23.028307 0.000002
23.032307 0.000004
23.036307 0.000006
23.040307 0.000009
23.044307 0.000013
23.048307 0.000018
23.052307 0.000025
23.056307 0.000033
23.060307 0.000043
23.064308 0.000055
23.068308 0.000068
23.072308 0.000082
23.076308 0.000097
23.080308 0.000112
23.084308 0.000125
23.088308 0.000136
23.092308 0.000145
23.096308 0.000151
23.100308 0.000152
23.104308 0.000150
23.108308 0.000144
23.112308 0.000135
23.116308 0.000123
23.120308 0.000109
23.124308 0.000095
23.128308 0.000080
23.132308 0.000066
23.136308 0.000053
23.140309 0.000041
23.144309 0.000032
23.148309 0.000024
23.152309 0.000017
23.156309 0.000012
23.160309 0.000008
23.164309 0.000005
23.168309 0.000003
23.172309 0.000000
23.176309 -0.000005
23.180309 -0.000014
23.184309 -0.000029
23.188309 -0.000050
23.192309 -0.000073
23.196309 -0.000082
23.200309 -0.000052
23.204309 0.000056
23.208309 0.000278
23.212309 0.000592
23.216310 0.000886
23.220310 0.001000
23.224310 0.000865
23.228310 0.000569
23.232310 0.000261
23.236310 0.000033
23.240310 -0.000111
23.244310 -0.000196
23.248310 -0.000236
23.252310 -0.000231
23.256310 -0.000188
23.260310 -0.000124
23.264310 -0.000060
23.268310 -0.000010
23.272310 0.000025
23.276310 0.000048
23.280310 0.000064
23.284310 0.000078
23.288311 0.000093
23.292311 0.000108
23.296311 0.000124
23.300311 0.000141
23.304311 0.000159
23.308311 0.000177
23.312311 0.000195
23.316311 0.000214
23.320311 0.000231
23.324311 0.000248
23.328311 0.000263
23.332311 0.000276
23.336311 0.000287
23.340311 0.000296
23.344311 0.000301
23.348311 0.000304
23.352311 0.000304
23.356311 0.000301
23.360311 0.000295
23.364312 0.000286
23.368312 0.000274
23.372312 0.000261
23.376312 0.000245
23.380312 0.000228
23.384312 0.000211
23.388312 0.000192
23.392312 0.000174
23.396312 0.000156
23.400312 0.000138
23.404312 0.000121
23.408312 0.000105
23.412312 0.000090
23.416312 0.000077
23.420312 0.000065
23.424312 0.000054
23.428312 0.000045
23.432312 0.000037
23.436312 0.000030
23.440313 0.000024
23.444313 0.000019
23.448313 0.000015
23.452313 0.000012
23.456313 0.000009
23.460313 0.000007
23.464313 0.000005
23.468313 0.000004
23.472313 0.000003
23.476313 0.000002
23.480313 0.000002
23.484313 0.000001
23.488313 0.000001
23.492313 0.000001
23.496313 0.000000
23.500313 0.000000
23.504313 0.000000
23.508313 0.000000
23.512313 0.000000
23.516314 0.000000
23.520314 0.000000
23.524314 0.000000
23.528314 0.000000
23.532314 0.000000
23.536314 0.000000
23.540314 0.000000
23.544314 0.000000
23.548314 0.000000
23.552314 0.000000
23.556314 0.000000
23.560314 0.000000
23.564314 0.000000
23.568314 0.000000
23.572314 0.000000
23.576314 0.000000
23.580314 0.000000
23.584314 0.000000
23.588315 0.000000
23.592315 0.000000
23.596315 0.000000
23.600315 0.000000
23.604315 0.000000
23.608315 0.000000
23.612315 0.000000
23.616315 0.000000
23.620315 0.000000
23.624315 0.000000
23.628315 0.000000
23.632315 0.000000
23.636315 0.000000
23.640315 0.000000
23.644315 0.000000
23.648315 0.000000
23.652315 0.000000
23.656315 0.000000
23.660315 0.000000
23.664316 0.000000
23.668316 0.000000
23.672316 0.000000
23.676316 0.000000
23.680316 0.000000
23.684316 0.000000
23.688316 0.000000
23.692316 0.000000
23.696316 0.000000
23.700316 0.000000
23.704316 0.000000
23.708316 0.000000
23.712316 0.000000
23.716316 0.000000
23.720316 0.000000
23.724316 0.000000
23.728316 0.000000
23.732316 0.000000
23.736316 0.000000
23.740317 0.000000
23.744317 0.000000
23.748317 0.000000
23.752317 0.000000
23.756317 0.000000
23.760317 0.000000
23.764317 0.000000
23.768317 0.000000
23.772317 0.000000
23.776317 0.000000
23.780317 0.000000
23.784317 0.000000
23.788317 0.000000
23.792317 0.000000
23.796317 0.000000
23.800317 0.000000
23.804317 0.000000
23.808317 0.000000
23.812317 0.000000
23.816318 0.000000
23.820318 0.000000
23.824318 0.000000
23.828318 0.000000
23.832318 0.000000
23.836318 0.000000
23.840318 0.000000
23.844318 0.000000
23.848318 0.000000
23.852318 0.000000
23.856318 0.000000
23.860318 0.000000
23.864318 0.000000
23.868318 0.000000
23.872318 0.000000
23.876318 0.000000
23.880318 0.000000
23.884318 0.000000
23.888319 0.000000
23.892319 0.000000
23.896319 0.000000
23.900319 0.000000
23.904319 0.000000
23.908319 0.000000
23.912319 0.000000
23.916319 0.000000
23.920319 0.000000
23.924319 0.000000
23.928319 0.000000
23.932319 0.000000
23.936319 0.000000
23.940319 0.000000
23.944319 0.000000
23.948319 0.000000
23.952319 0.000000
23.956319 0.000000
23.960319 0.000000
23.964320 0.000000
23.968320 0.000000
23.972320 0.000000
23.976320 0.000000
23.980320 0.000000
23.984320 0.000000
23.988320 0.000000
23.992320 0.000000
23.996320 0.000000
24.000320 0.000000
24.004320 0.000000
24.008320 0.000000
24.012320 0.000000
24.016320 0.000001
24.020320 0.000001
24.024320 0.000002
24.028320 0.000002
24.032320 0.000004
24.036320 0.000006
24.040321 0.000009
24.044321 0.000013
24.048321 0.000018
24.052321 0.000025
24.056321 0.000033
24.060321 0.000043
24.064321 0.000055
24.068321 0.000068
24.072321 0.000082
24.076321 0.000097
24.080321 0.000112
24.084321 0.000125
24.088321 0.000136
24.092321 0.000145
24.096321 0.000151
24.100321 0.000152
24.104321 0.000150
24.108321 0.000144
24.112321 0.000135
24.116322 0.000123
24.120322 0.000109
24.124322 0.000095
24.128322 0.000080
24.132322 0.000066
24.136322 0.000053
24.140322 0.000041
24.144322 0.000032
24.148322 0.000024
24.152322 0.000017
24.156322 0.000012
24.160322 0.000008
24.164322 0.000005
24.168322 0.000003
24.172322 0.000000
24.176322 -0.000005
24.180322 -0.000014
24.184322 -0.000029
24.188323 -0.000051
24.192323 -0.000073
24.196323 -0.000082
24.200323 -0.000052
24.204323 0.000057
24.208323 0.000279
24.212323 0.000593
24.216323 0.000887
24.220323 0.001000
24.224323 0.000865
24.228323 0.000568
24.232323 0.000260
24.236323 0.000032
24.240323 -0.000112
24.244323 -0.000197
24.248323 -0.000236
24.252323 -0.000231
24.256323 -0.000188
24.260323 -0.000124
24.264324 -0.000060
24.268324 -0.000009
24.272324 0.000025
24.276324 0.000048
24.280324 0.000064
24.284324 0.000078
24.288324 0.000093
24.292324 0.000108
24.296324 0.000124
24.300324 0.000141
24.304324 0.000159
24.308324 0.000177
24.312324 0.000195
24.316324 0.000214
24.320324 0.000231
24.324324 0.000248
24.328324 0.000263
24.332324 0.000276
24.336324 0.000287
24.340325 0.000296
24.344325 0.000301
24.348325 0.000304
24.352325 0.000304
24.356325 0.000301
24.360325 0.000294
24.364325 0.000286
24.368325 0.000274
24.372325 0.000261
24.376325 0.000245
24.380325 0.000228
24.384325 0.000211
24.388325 0.000192
24.392325 0.000174
24.396325 0.000156
24.400325 0.000138
24.404325 0.000121
24.408325 0.000105
24.412325 0.000090
24.416326 0.000077
24.420326 0.000065
24.424326 0.000054
24.428326 0.000045
24.432326 0.000037
24.436326 0.000030
24.440326 0.000024
24.444326 0.000019
24.448326 0.000015
24.452326 0.000012
24.456326 0.000009
24.460326 0.000007
24.464326 0.000005
24.468326 0.000004
24.472326 0.000003
24.476326 0.000002
24.480326 0.000002
24.484326 0.000001
24.488327 0.000001
24.492327 0.000001
24.496327 0.000000
24.500327 0.000000
24.504327 0.000000
24.508327 0.000000
24.512327 0.000000
24.516327 0.000000
24.520327 0.000000
24.524327 0.000000
24.528327 0.000000
24.532327 0.000000
24.536327 0.000000
24.540327 0.000000
24.544327 0.000000
24.548327 0.000000
24.552327 0.000000
24.556327 0.000000
24.560327 0.000000
24.564328 0.000000
24.568328 0.000000
24.572328 0.000000
24.576328 0.000000
24.580328 0.000000
24.584328 0.000000
24.588328 0.000000
24.592328 0.000000
24.596328 0.000000
24.600328 0.000000
24.604328 0.000000
24.608328 0.000000
24.612328 0.000000
24.616328 0.000000
24.620328 0.000000
24.624328 0.000000
24.628328 0.000000
24.632328 0.000000
24.636328 0.000000
24.640329 0.000000
24.644329 0.000000
24.648329 0.000000
24.652329 0.000000
24.656329 0.000000
24.660329 0.000000
24.664329 0.000000
24.668329 0.000000
24.672329 0.000000
24.676329 0.000000
24.680329 0.000000
24.684329 0.000000
24.688329 0.000000
24.692329 0.000000
24.696329 0.000000
24.700329 0.000000
24.704329 0.000000
24.708329 0.000000
24.712329 0.000000
24.716330 0.000000
24.720330 0.000000
24.724330 0.000000
24.728330 0.000000
24.732330 0.000000
24.736330 0.000000
24.740330 0.000000
24.744330 0.000000
24.748330 0.000000
24.752330 0.000000
24.756330 0.000000
24.760330 0.000000
24.764330 0.000000
24.768330 0.000000
24.772330 0.000000
24.776330 0.000000
24.780330 0.000000
24.784330 0.000000
24.788331 0.000000
24.792331 0.000000
24.796331 0.000000
24.800331 0.000000
24.804331 0.000000
24.808331 0.000000
24.812331 0.000000
24.816331 0.000000
24.820331 0.000000
24.824331 0.000000
24.828331 0.000000
24.832331 0.000000
24.836331 0.000000
24.840331 0.000000
24.844331 0.000000
24.848331 0.000000
24.852331 0.000000
24.856331 0.000000
24.860331 0.000000
24.864332 0.000000
24.868332 0.000000
24.872332 0.000000
24.876332 0.000000
24.880332 0.000000
24.884332 0.000000
24.888332 0.000000
24.892332 0.000000
24.896332 0.000000
24.900332 0.000000
24.904332 0.000000
24.908332 0.000000
24.912332 0.000000
24.916332 0.000000
24.920332 0.000000
24.924332 0.000000
24.928332 0.000000
24.932332 0.000000
24.936332 0.000000
24.940333 0.000000
24.944333 0.000000
24.948333 0.000000
24.952333 0.000000
24.956333 0.000000
24.960333 0.000000
24.964333 0.000000
24.968333 0.000000
24.972333 0.000000
24.976333 0.000000
24.980333 0.000000
24.984333 0.000000
24.988333 0.000000
24.992333 0.000000
24.996333 0.000000
25.000333 0.000000
25.004333 0.000000
25.008333 0.000000
25.012333 0.000000
25.016334 0.000001
25.020334 0.000001
25.024334 0.000002
25.028334 0.000003
25.032334 0.000004
25.036334 0.000006
25.040334 0.000009
25.044334 0.000013
25.048334 0.000018
25.052334 0.000025
25.056334 0.000033
25.060334 0.000043
25.064334 0.000055
25.068334 0.000068
25.072334 0.000083
25.076334 0.000097
25.080334 0.000112
25.084334 0.000125
25.088335 0.000137
25.092335 0.000145
25.096335 0.000151
25.100335 0.000152
25.104335 0.000150
25.108335 0.000144
25.112335 0.000135
25.116335 0.000123
25.120335 0.000109
25.124335 0.000095
25.128335 0.000080
25.132335 0.000066
25.136335 0.000053
25.140335 0.000041
25.144335 0.000032
25.148335 0.000023
25.152335 0.000017
25.156335 0.000012
25.160335 0.000008
25.164336 0.000005
25.168336 0.000003
25.172336 0.000000
25.176336 -0.000005
25.180336 -0.000014
25.184336 -0.000029
25.188336 -0.000051
25.192336 -0.000073
25.196336 -0.000082
25.200336 -0.000052
25.204336 0.000057
25.208336 0.000279
25.212336 0.000595
25.216336 0.000887
25.220336 0.001000
25.224336 0.000864
25.228336 0.000567
25.232336 0.000259
25.236336 0.000032
25.240337 -0.000112
25.244337 -0.000197
25.248337 -0.000236
25.252337 -0.000231
25.256337 -0.000188
25.260337 -0.000124
25.264337 -0.000060
25.268337 -0.000009
25.272337 0.000025
25.276337 0.000048
25.280337 0.000064
25.284337 0.000078
25.288337 0.000093
25.292337 0.000108
25.296337 0.000124
25.300337 0.000141
25.304337 0.000159
25.308337 0.000177
25.312337 0.000195
25.316338 0.000214
25.320338 0.000231
25.324338 0.000248
25.328338 0.000263
25.332338 0.000276
25.336338 0.000287
25.340338 0.000296
25.344338 0.000301
25.348338 0.000304
25.352338 0.000304
25.356338 0.000301
25.360338 0.000294
25.364338 0.000286
25.368338 0.000274
25.372338 0.000261
25.376338 0.000245
25.380338 0.000228
25.384338 0.000211
25.388339 0.000192
25.392339 0.000174
25.396339 0.000156
25.400339 0.000138
25.404339 0.000121
25.408339 0.000105
25.412339 0.000090
25.416339 0.000077
25.420339 0.000065
25.424339 0.000054
25.428339 0.000045
25.432339 0.000037
25.436339 0.000030
25.440339 0.000024
25.444339 0.000019
25.448339 0.000015
25.452339 0.000012
25.456339 0.000009
25.460339 0.000007
25.464340 0.000005
25.468340 0.000004
25.472340 0.000003
25.476340 0.000002
25.480340 0.000002
25.484340 0.000001
25.488340 0.000001
25.492340 0.000001
25.496340 0.000000
25.500340 0.000000
25.504340 0.000000
25.508340 0.000000
25.512340 0.000000
25.516340 0.000000
25.520340 0.000000
25.524340 0.000000
25.528340 0.000000
25.532340 0.000000
25.536340 0.000000
25.540341 0.000000
25.544341 0.000000
25.548341 0.000000
25.552341 0.000000
25.556341 0.000000
25.560341 0.000000
25.564341 0.000000
25.568341 0.000000
25.572341 0.000000
25.576341 0.000000
25.580341 0.000000
25.584341 0.000000
25.588341 0.000000
25.592341 0.000000
25.596341 0.000000
25.600341 0.000000
25.604341 0.000000
25.608341 0.000000
25.612341 0.000000
25.616342 0.000000
25.620342 0.000000
25.624342 0.000000
25.628342 0.000000
25.632342 0.000000
25.636342 0.000000
25.640342 0.000000
25.644342 0.000000
25.648342 0.000000
25.652342 0.000000
25.656342 0.000000
25.660342 0.000000
25.664342 0.000000
25.668342 0.000000
25.672342 0.000000
25.676342 0.000000
25.680342 0.000000
25.684342 0.000000
25.688343 0.000000
25.692343 0.000000
25.696343 0.000000
25.700343 0.000000
